#Te   kappa_tot   kappa_e_ph  kappa_e_e mu Ce
#[K]  [W/(K*m)]   [W/(K*m)]   [W/(K*m)]   [eV]  [J/(m^3*K)]
   3.0000000000000000E+02   3.5911422444467698E-23   9.6753980008761670E-12   3.5911422444600987E-23   8.8087848044436146E-01   2.5838792181380247E-07
   4.0000000000000000E+02   1.1052866754214728E-14   6.0350269092960176E-08   1.1052868778495442E-14   7.9571361643613081E-01   7.5373569076207651E-05
   5.0000000000000000E+02   2.4968856311743661E-10   7.0521958827226818E-06   2.4969740385116245E-10   7.9438291543600215E-01   7.0699856049625254E-03
   6.0000000000000000E+02   1.7452640331897701E-07   2.0400403621119537E-04   1.7467583931322616E-07   7.9912353774896050E-01   1.5832205337301702E-01
   7.0000000000000000E+02   1.8014987606552213E-05   2.3646878036830223E-03   1.8153285445194605E-05   8.0299608558136604E-01   1.5847944299970940E+00
   8.0000000000000000E+02   5.5831150333118828E-04   1.5004228392708421E-02   5.7988934689341643E-04   8.0572636175448142E-01   9.3927219330684668E+00
   9.0000000000000000E+02   7.5710789040583848E-03   6.2990731217025281E-02   8.6053913434034086E-03   8.0677019532709182E-01   3.8386828233346243E+01
   1.0000000000000000E+03   5.3332896162775659E-02   1.9772768422299394E-01   7.3031652962246729E-02   8.0577078884475661E-01   1.1904735196797971E+02
   1.1000000000000000E+03   2.2882616712964426E-01   5.0302423566688614E-01   4.1978817879725056E-01   8.0265382642520511E-01   2.9962353253061315E+02
   1.2000000000000000E+03   6.8113613754091884E-01   1.0943716712167655E+00   1.8038528452190492E+00   7.9758335124135005E-01   6.4311095874545742E+02
   1.3000000000000000E+03   1.5725980778028947E+00   2.1118215336949349E+00   6.1589429173799406E+00   7.9085443389459986E-01   1.2214321110415885E+03
   1.4000000000000000E+03   3.0607502595175915E+00   3.7085934964780876E+00   1.7521335192209047E+01   7.8279574957247100E-01   2.1094503355738775E+03
   1.5000000000000000E+03   5.2972441694025942E+00   6.0386111946544014E+00   4.3147316852010633E+01   7.7371223197468053E-01   3.3801322336117105E+03
   1.6000000000000000E+03   8.4207802700944825E+00   9.2457819862328119E+00   9.4371559486804529E+01   7.6386262118560100E-01   5.1011289077769861E+03
   1.7000000000000000E+03   1.2554403217914970E+01   1.3456538283083427E+01   1.8726553710845124E+02   7.5345708038827908E-01   7.3326286251711881E+03
   1.8000000000000000E+03   1.7796804399154784E+01   1.8775872105152928E+01   3.4129460223416453E+02   7.4266311220055814E-01   1.0126279160640579E+04
   1.9000000000000000E+03   2.4230301083695529E+01   2.5286295200036566E+01   5.8020640125443629E+02   7.3161361463854291E-01   1.3524890298781636E+04
   2.0000000000000000E+03   3.1915388650236888E+01   3.3048854147439712E+01   9.3056826799183216E+02   7.2041437361948535E-01   1.7562688660316944E+04
   2.1000000000000000E+03   4.0891216760129666E+01   4.2105350261365793E+01   1.4180804685364194E+03   7.0915023945425493E-01   2.2265876757460104E+04
   2.2000000000000000E+03   5.1182412722792591E+01   5.2481081121559342E+01   2.0683558302125443E+03   6.9788987565251925E-01   2.7653395071944109E+04
   2.3000000000000000E+03   6.2800794259327489E+01   6.4187626816499019E+01   2.9066479041412381E+03   6.8668934273509874E-01   3.3737696771537725E+04
   2.4000000000000000E+03   7.5746862713575879E+01   7.7225386848505750E+01   3.9563647541634591E+03   6.7559473279291038E-01   4.0525507500205691E+04
   2.5000000000000000E+03   9.0014778475746198E+01   9.1585719298198597E+01   5.2478540988573750E+03   6.6464410352734382E-01   4.8018504245250464E+04
   2.6000000000000000E+03   1.0557885133636847E+02   1.0725263570122691E+02   6.7652741403707378E+03   6.5386889007435822E-01   5.6213881761608463E+04
   2.7000000000000000E+03   1.2242517333212503E+02   1.2420407186850686E+02   8.5478203034475446E+03   6.4329494118818975E-01   6.5104819511347974E+04
   2.8000000000000000E+03   1.4053070199481800E+02   1.4241279299470270E+02   1.0633582421792709E+04   6.3294328860616567E-01   7.4680856453549975E+04
   2.9000000000000000E+03   1.5984913911060281E+02   1.6184701010172228E+02   1.2949337243186586E+04   6.2283073938029732E-01   8.4928204423256713E+04
   3.0000000000000000E+03   1.8034999030505978E+02   1.8247078829471658E+02   1.5517086049876010E+04   6.1297035399389088E-01   9.5829984866550512E+04
   3.1000000000000000E+03   2.0199799083327079E+02   2.0424432026496493E+02   1.8366381061710359E+04   6.0337184770030561E-01   1.0736646815103562E+05
   3.2000000000000000E+03   2.2473851857235186E+02   2.2712412924075355E+02   2.1396425248132007E+04   5.9404195331415721E-01   1.1951526686979948E+05
   3.3000000000000000E+03   2.4852351003822164E+02   2.5106324953730152E+02   2.4567527511863686E+04   5.8498475608330314E-01   1.3225155994590544E+05
   3.4000000000000000E+03   2.7332999138247999E+02   2.7601142034710011E+02   2.8135072806460554E+04   5.7620201428395312E-01   1.4554829900916456E+05
   3.5000000000000000E+03   2.9907088975418219E+02   3.0191531436237176E+02   3.1744234470759202E+04   5.6769346664933462E-01   1.5937644612312183E+05
   3.6000000000000000E+03   3.2571545760638122E+02   3.2871881209297953E+02   3.5649737246288416E+04   5.5945712631463873E-01   1.7370521285246901E+05
   3.7000000000000000E+03   3.5321746697300853E+02   3.5636332419254785E+02   4.0012544088636896E+04   5.5148955937467459E-01   1.8850231313012727E+05
   3.8000000000000000E+03   3.8146523409586433E+02   3.8478815747780214E+02   4.4172942827224018E+04   5.4378614400911385E-01   2.0373422142818826E+05
   3.9000000000000000E+03   4.1042917449950471E+02   4.1393091651529147E+02   4.8515659805687224E+04   5.3634130771652522E-01   2.1936644015347949E+05
   4.0000000000000000E+03   4.4005045274540424E+02   4.4372793036875817E+02   5.3096904088424308E+04   5.2914874075362561E-01   2.3536375604977930E+05
   4.1000000000000000E+03   4.7022706153880137E+02   4.7411469308624100E+02   5.7346370467938214E+04   5.2220158419342244E-01   2.5169050161589231E+05
   4.2000000000000000E+03   5.0094734427811062E+02   5.0502630715103771E+02   6.2023508239568866E+04   5.1549259347472287E-01   2.6831079385149537E+05
   4.3000000000000000E+03   5.3210641688592989E+02   5.3639791937558334E+02   6.6508355894501175E+04   5.0901427688780299E-01   2.8518877767753322E+05
   4.4000000000000000E+03   5.6367654823640521E+02   5.6816514079580065E+02   7.1350063779271703E+04   5.0275901161365422E-01   3.0228884105494828E+05
   4.5000000000000000E+03   5.9557509432485188E+02   6.0026444332829749E+02   7.6237139140725310E+04   4.9671913914108679E-01   3.1957581511954305E+05
   4.6000000000000000E+03   6.2771596673045121E+02   6.3263352735308536E+02   8.0754300085438168E+04   4.9088704164799896E-01   3.3701516409999045E+05
   4.7000000000000000E+03   6.6005108739849175E+02   6.6521165617825238E+02   8.5082419351258839E+04   4.8525520188492666E-01   3.5457315112924209E+05
   4.8000000000000000E+03   6.9255139295679271E+02   6.9793995494488081E+02   8.9700979420074829E+04   4.7981624957487951E-01   3.7221698671898386E+05
   4.9000000000000000E+03   7.2513583547240080E+02   7.3076167219361616E+02   9.4190695883338587E+04   4.7456299559852189E-01   3.8991495692725753E+05
   5.0000000000000000E+03   7.5774530439572129E+02   7.6362240386278938E+02   9.8455248903090178E+04   4.6948845650280341E-01   4.0763653085242468E+05
   5.1000000000000000E+03   7.9039592240585239E+02   7.9647027994456710E+02   1.0363678093911469E+05   4.6458587052278227E-01   4.2535246467148751E+05
   5.2000000000000000E+03   8.2295288119718214E+02   8.2925611533955589E+02   1.0826802462903100E+05   4.5984870773406933E-01   4.4303486984556407E+05
   5.3000000000000000E+03   8.5539513214067097E+02   8.6193352617452547E+02   1.1276373658439219E+05   4.5527067457383802E-01   4.6065727535841119E+05
   5.4000000000000000E+03   8.8764168852135128E+02   8.9445901401292463E+02   1.1646196305177802E+05   4.5084571479261476E-01   4.7819467306838941E+05
   5.5000000000000000E+03   9.1971465127133638E+02   9.2679201987180738E+02   1.2043801128299721E+05   4.4656800667822105E-01   4.9562355506484496E+05
   5.6000000000000000E+03   9.5155754803630543E+02   9.5889495120353104E+02   1.2435513052728288E+05   4.4243195893134324E-01   5.1292192229427851E+05
   5.7000000000000000E+03   9.8315180095807864E+02   9.9073318371832431E+02   1.2847802896183716E+05   4.3843220400299238E-01   5.3006930240435107E+05
   5.8000000000000000E+03   1.0144710859355803E+03   1.0222750412965044E+03   1.3289010806772314E+05   4.3456359095606711E-01   5.4704673794384999E+05
   5.9000000000000000E+03   1.0454312983344248E+03   1.0534917561867064E+03   1.3663656266661515E+05   4.3082117729581026E-01   5.6383678106397251E+05
   6.0000000000000000E+03   1.0760203282347716E+03   1.0843574121207137E+03   1.3995188659207092E+05   4.2720022040368438E-01   5.8042346570533479E+05
   6.1000000000000000E+03   1.1062240936117087E+03   1.1148488727838881E+03   1.4299179830453001E+05   4.2369616893159129E-01   5.9679228281201841E+05
   6.2000000000000000E+03   1.1360446045043109E+03   1.1449456978008639E+03   1.4612917077734778E+05   4.2030465411677376E-01   6.1293014522622642E+05
   6.3000000000000000E+03   1.1654575894162542E+03   1.1746300483124767E+03   1.4924912938295465E+05   4.1702148109671633E-01   6.2882534484329191E+05
   6.4000000000000000E+03   1.1943767548795631E+03   1.2038865842840721E+03   1.5120083553743796E+05   4.1384262077926254E-01   6.4446751176319434E+05
   6.5000000000000000E+03   1.2229210186190021E+03   1.2327023550737085E+03   1.5411980016242460E+05   4.1076420175238482E-01   6.5984756075645611E+05
   6.6000000000000000E+03   1.2509925630406547E+03   1.2610666849747292E+03   1.5659777147085560E+05   4.0778250251121967E-01   6.7495764242432464E+05
   6.7000000000000000E+03   1.2785586673051334E+03   1.2889710553344978E+03   1.5827542251169909E+05   4.0489394435929166E-01   6.8979108804981248E+05
   6.8000000000000000E+03   1.3056860602893707E+03   1.3164089842144524E+03   1.6029367291397869E+05   4.0209508423041734E-01   7.0434235369181202E+05
   6.9000000000000000E+03   1.3323510146810574E+03   1.3433759051270047E+03   1.6234612571156927E+05   3.9938260830377015E-01   7.1860696208879922E+05
   7.0000000000000000E+03   1.3585749204241151E+03   1.3698690455257738E+03   1.6478210687105762E+05   3.9675332563877574E-01   7.3258144910431514E+05
   7.1000000000000000E+03   1.3842553366349878E+03   1.3958873062450523E+03   1.6611670403083685E+05   3.9420416252384927E-01   7.4626329812918778E+05
   7.2000000000000000E+03   1.4094911716754314E+03   1.4214311423065492E+03   1.6779728427506806E+05   3.9173215674581702E-01   7.5965089076313260E+05
   7.3000000000000000E+03   1.4341844910893765E+03   1.4465024461235223E+03   1.6841686536461979E+05   3.8933445261284039E-01   7.7274344095602154E+05
   7.4000000000000000E+03   1.4584769825851481E+03   1.4711044332723150E+03   1.6991331093354835E+05   3.8700829585836460E-01   7.8554094833748753E+05
   7.5000000000000000E+03   1.4823117399757311E+03   1.4952415316872391E+03   1.7141916327597108E+05   3.8475102929857113E-01   7.9804413332677865E+05
   7.6000000000000000E+03   1.5056517582508577E+03   1.5189192742003124E+03   1.7237314690658276E+05   3.8256008821222187E-01   8.1025439097702492E+05
   7.7000000000000000E+03   1.5285913652536376E+03   1.5421441952392579E+03   1.7393476516121713E+05   3.8043299657315155E-01   8.2217373375309212E+05
   7.8000000000000000E+03   1.5509941668217471E+03   1.5649237313723438E+03   1.7424719703642617E+05   3.7836736290600875E-01   8.3380474184357654E+05
   7.9000000000000000E+03   1.5730318613041597E+03   1.5872661263953205E+03   1.7540913936885743E+05   3.7636087691532755E-01   8.4515051691013679E+05
   8.0000000000000000E+03   1.5946067702134756E+03   1.6091803406147023E+03   1.7607283561910479E+05   3.7441130583699317E-01   8.5621463248625165E+05
   8.1000000000000000E+03   1.6157298202504128E+03   1.6306759647981198E+03   1.7628170094836460E+05   3.7251649138457760E-01   8.6700108901567035E+05
   8.2000000000000000E+03   1.6365166287398458E+03   1.6517631385088389E+03   1.7729551771951039E+05   3.7067434657670190E-01   8.7751427148530085E+05
   8.3000000000000000E+03   1.6569483891447569E+03   1.6724524730223966E+03   1.7873790241113573E+05   3.6888285288166017E-01   8.8775890859904129E+05
   8.4000000000000000E+03   1.6768573324466499E+03   1.6927549786895620E+03   1.7854898484212591E+05   3.6714005744136191E-01   8.9774003456794133E+05
   8.5000000000000000E+03   1.6964726523506968E+03   1.7126819967348754E+03   1.7924957979608921E+05   3.6544407047373456E-01   9.0746295085525233E+05
   8.6000000000000000E+03   1.7156777450406580E+03   1.7322451353863821E+03   1.7938699853863148E+05   3.6379306279409895E-01   9.1693319157637446E+05
   8.7000000000000000E+03   1.7344199231829250E+03   1.7514562102490945E+03   1.7831118563802930E+05   3.6218526347534880E-01   9.2615649251176766E+05
   8.8000000000000000E+03   1.7529455246841251E+03   1.7703271887836579E+03   1.7853797571018364E+05   3.6061895758744622E-01   9.3513875735168136E+05
   8.9000000000000000E+03   1.7711075423794312E+03   1.7888701387836870E+03   1.7836814635826627E+05   3.5909248405588984E-01   9.4388603169947944E+05
   9.0000000000000000E+03   1.7889594614095979E+03   1.8070971807529370E+03   1.7823760187257556E+05   3.5760423371847505E-01   9.5240447420636332E+05
   9.1000000000000000E+03   1.8065102151982835E+03   1.8250204439160213E+03   1.7811330833101098E+05   3.5615264730273605E-01   9.6070033113531978E+05
   9.2000000000000000E+03   1.8237644403475140E+03   1.8426520258129592E+03   1.7792444919760147E+05   3.5473621354219220E-01   9.6877991583707347E+05
   9.3000000000000000E+03   1.8407434461201724E+03   1.8600039553969043E+03   1.7776217863515203E+05   3.5335346759002811E-01   9.7664958257529652E+05
   9.4000000000000000E+03   1.8574555983020739E+03   1.8770881592420035E+03   1.7759312809768895E+05   3.5200298919482803E-01   9.8431570934906241E+05
   9.5000000000000000E+03   1.8737999363187009E+03   1.8939164309197095E+03   1.7641346357990091E+05   3.5068340111425517E-01   9.9178468016353028E+05
   9.6000000000000000E+03   1.8899295100119430E+03   1.9105004033357989E+03   1.7552524502991475E+05   3.4939336764770718E-01   9.9906286462676816E+05
   9.7000000000000000E+03   1.9057379718874422E+03   1.9268515238042191E+03   1.7392024466451991E+05   3.4813159312931274E-01   1.0061566047219714E+06
   9.8000000000000000E+03   1.9214470456538352E+03   1.9429810317686702E+03   1.7336944230131869E+05   3.4689682052007315E-01   1.0130722003197914E+06
   9.9000000000000000E+03   1.9369239498059098E+03   1.9588999390324122E+03   1.7265389821949301E+05   3.4568783011897802E-01   1.0198158944231828E+06
   1.0000000000000000E+04   1.9522351662609087E+03   1.9746190122895187E+03   1.7221887028850146E+05   3.4450343825429236E-01   1.0263938632708646E+06
   1.0100000000000000E+04   1.9672627867388821E+03   1.9901487578342176E+03   1.7107185773558321E+05   3.4334249599467137E-01   1.0328122065484570E+06
   1.0200000000000000E+04   1.9822419815367243E+03   2.0054994084085552E+03   1.7092970530241323E+05   3.4220388809822483E-01   1.0390769335038658E+06
   1.0300000000000000E+04   1.9969109865649175E+03   2.0206809118883264E+03   1.6975736601570118E+05   3.4108653182277704E-01   1.0451939589019202E+06
   1.0400000000000000E+04   2.0115344090997992E+03   2.0357029217945237E+03   1.6943063586980605E+05   3.3998937585510136E-01   1.0511690926837185E+06
   1.0500000000000000E+04   2.0258772835107702E+03   2.0505747894635351E+03   1.6820374057441996E+05   3.3891139925998498E-01   1.0570080346744780E+06
   1.0600000000000000E+04   2.0400012687818139E+03   2.0653055578202629E+03   1.6650244359656385E+05   3.3785161058792218E-01   1.0627163675439176E+06
   1.0700000000000000E+04   2.0541866437645240E+03   2.0799039564917375E+03   1.6613364596283197E+05   3.3680904680435081E-01   1.0682995531539610E+06
   1.0800000000000000E+04   2.0680859113929196E+03   2.0943783983302610E+03   1.6473734375278605E+05   3.3578277243700466E-01   1.0737629265285349E+06
   1.0900000000000000E+04   2.0818003330564729E+03   2.1087369771644198E+03   1.6297387765888180E+05   3.3477187876292530E-01   1.0791116936242825E+06
   1.1000000000000000E+04   2.0957098507158034E+03   2.1229874666013452E+03   1.6310684061875130E+05   3.3377548285667041E-01   1.0843509271465070E+06
   1.1100000000000000E+04   2.1092557232948438E+03   2.1371373199820491E+03   1.6167542964667108E+05   3.3279272693595713E-01   1.0894855634619633E+06
   1.1200000000000000E+04   2.1227884179179950E+03   2.1511936711553858E+03   1.6076353805626676E+05   3.3182277744952843E-01   1.0945204047850296E+06
   1.1300000000000000E+04   2.1360887776584113E+03   2.1651633362262755E+03   1.5907313239219412E+05   3.3086482444262538E-01   1.0994601119208597E+06
   1.1400000000000000E+04   2.1494948919837871E+03   2.1790528160236663E+03   1.5846386542865125E+05   3.2991808080348589E-01   1.1043092068956604E+06
   1.1500000000000000E+04   2.1628046143762531E+03   2.1928682993206899E+03   1.5775663180530473E+05   3.2898178162881697E-01   1.1090720723694204E+06
   1.1600000000000000E+04   2.1759532241802617E+03   2.2066156666494571E+03   1.5659197662405050E+05   3.2805518350995039E-01   1.1137529498434309E+06
   1.1700000000000000E+04   2.1890697896895372E+03   2.2203004947250483E+03   1.5562865876735022E+05   3.2713756391814469E-01   1.1183559424840389E+06
   1.1800000000000000E+04   2.2020445010106637E+03   2.2339280614267150E+03   1.5428669004110456E+05   3.2622822070886054E-01   1.1228850107860286E+06
   1.1900000000000000E+04   2.2148824423774631E+03   2.2475033511109377E+03   1.5260015446632562E+05   3.2532647136825849E-01   1.1273439798018695E+06
   1.2000000000000000E+04   2.2277798089995636E+03   2.2610310604685674E+03   1.5148540645840656E+05   3.2443165259679052E-01   1.1317365364637179E+06
   1.2100000000000000E+04   2.2405774067047714E+03   2.2745156046548846E+03   1.5016201751425574E+05   3.2354311973415922E-01   1.1360662297709102E+06
   1.2200000000000000E+04   2.2535315860924566E+03   2.2879611237256790E+03   1.4975492017912382E+05   3.2266024620410638E-01   1.1403364767073970E+06
   1.2300000000000000E+04   2.2663144305182936E+03   2.3013714893716783E+03   1.4877549877070880E+05   3.2178242305834598E-01   1.1445505607054243E+06
   1.2400000000000000E+04   2.2787790765906448E+03   2.3147503118668242E+03   1.4663951731751702E+05   3.2090905852049761E-01   1.1487116329617368E+06
   1.2500000000000000E+04   2.2914302457143640E+03   2.3281009471752400E+03   1.4547528988844607E+05   3.2003957749036094E-01   1.1528227184407050E+06
   1.2600000000000000E+04   2.3040084080451134E+03   2.3414265042267980E+03   1.4417265716471191E+05   3.1917342110767905E-01   1.1568867135857125E+06
   1.2700000000000000E+04   2.3165741808587254E+03   2.3547298523026993E+03   1.4296449708011185E+05   3.1831004631589987E-01   1.1609063926268895E+06
   1.2800000000000000E+04   2.3291089574337534E+03   2.3680136285284125E+03   1.4176605529221144E+05   3.1744892548542580E-01   1.1648844071727665E+06
   1.2900000000000000E+04   2.3417523612976734E+03   2.3812802454022108E+03   1.4107430144337035E+05   3.1658954599720468E-01   1.1688232898765190E+06
   1.3000000000000000E+04   2.3542386728323636E+03   2.3945318983611269E+03   1.3990688321609565E+05   3.1573140984614989E-01   1.1727254582476893E+06
   1.3100000000000000E+04   2.3668532452473710E+03   2.4077705733794278E+03   1.3927692387493601E+05   3.1487403330404812E-01   1.1765932149642564E+06
   1.3200000000000000E+04   2.3790445852249841E+03   2.4209980545250173E+03   1.3728691353907570E+05   3.1401694652297868E-01   1.1804287523746607E+06
   1.3300000000000000E+04   2.3913720641051473E+03   2.4342159315173803E+03   1.3586812601721974E+05   3.1315969321805059E-01   1.1842341559204687E+06
