#Te   kappa_tot   kappa_e_ph  kappa_e_e mu Ce
#[K]  [W/(K*m)]   [W/(K*m)]   [W/(K*m)]   [eV]  [J/(m^3*K)]
   3.0000000000000000E+02   1.5783624755680448E-01   1.6389289411677516E-01   4.2710498544828086E+00   6.0385511897125150E+00   4.6629756103683343E+02
   4.0000000000000000E+02   4.6331069667939123E-01   4.7171136384906120E-01   2.6015662351860392E+01   6.0353016784607005E+00   9.0707299699034525E+02
   5.0000000000000000E+02   1.4900599620464281E+00   1.5173378745413892E+00   8.2884803452917623E+01   6.0317254530435083E+00   1.5297475793815995E+03
   6.0000000000000000E+02   3.6812959172031015E+00   3.7600381704159562E+00   1.7578634850419013E+02   6.0277563799716720E+00   2.4213603852825913E+03
   7.0000000000000000E+02   7.2551030379682064E+00   7.4392274668351108E+00   2.9312982599276000E+02   6.0233697487063438E+00   3.6616963333457957E+03
   8.0000000000000000E+02   1.2233949323395690E+01   1.2600430653023793E+01   4.2062996829466402E+02   6.0185645524194253E+00   5.2930241082458779E+03
   9.0000000000000000E+02   1.8529608179918366E+01   1.9179264446191908E+01   5.4703429154231776E+02   6.0133565941042306E+00   7.3259605565806596E+03
   1.0000000000000000E+03   2.6002821241023089E+01   2.7063461180355528E+01   6.6349221553835991E+02   6.0077769985428162E+00   9.7527073797811063E+03
   1.1000000000000000E+03   3.4502743442905107E+01   3.6129439833125168E+01   7.6631681289312939E+02   6.0018719683916943E+00   1.2556784526163223E+04
   1.2000000000000000E+03   4.3887597736960338E+01   4.6262916016272662E+01   8.5477734329092345E+02   5.9957022092689813E+00   1.5718262096046414E+04
   1.3000000000000000E+03   5.4027669000934821E+01   5.7369984746051422E+01   9.2737095559480213E+02   5.9893416329371618E+00   1.9216046791235185E+04
   1.4000000000000000E+03   6.4833401595400829E+01   6.9382234650734091E+01   9.8888796928332431E+02   5.9828752835449999E+00   2.3028724694282508E+04
   1.5000000000000000E+03   7.6224910695434588E+01   8.2257874363980008E+01   1.0393066280311975E+03   5.9763964765056778E+00   2.7134932253359857E+04
   1.6000000000000000E+03   8.8143624685556318E+01   9.5979975819805048E+01   1.0795870196544897E+03   5.9700032047555398E+00   3.1513773622362893E+04
   1.7000000000000000E+03   1.0047791737437312E+02   1.1055257805330108E+02   1.1025773628681200E+03   5.9637939788668106E+00   3.6145480690769822E+04
   1.8000000000000000E+03   1.1338716708834113E+02   1.2599539966274422E+02   1.1330899354541948E+03   5.9578634260710155E+00   4.1012292426106556E+04
   1.9000000000000000E+03   1.2678108713533318E+02   1.4233803397998682E+02   1.1599815097967253E+03   5.9522980900439970E+00   4.6099381777485200E+04
   2.0000000000000000E+03   1.4067778982188347E+02   1.5961451908308754E+02   1.1857495271949547E+03   5.9471729023318778E+00   5.1395604517877968E+04
   2.1000000000000000E+03   1.5470799114464410E+02   1.7785898733628267E+02   1.1885538924564723E+03   5.9425487087255258E+00   5.6893887117284816E+04
   2.2000000000000000E+03   1.6913334557856032E+02   1.9710275611299858E+02   1.1918967159890497E+03   5.9384710484230334E+00   6.2591170127394224E+04
   2.3000000000000000E+03   1.8386687398192319E+02   2.1737285435379044E+02   1.1928517469113531E+03   5.9349701673748649E+00   6.8487961305018980E+04
   2.4000000000000000E+03   1.9896774181899357E+02   2.3869170951016565E+02   1.1955490146747622E+03   5.9320620591079924E+00   7.4587615887541993E+04
   2.5000000000000000E+03   2.1431263757525937E+02   2.6107759898412536E+02   1.1964562177420287E+03   5.9297502182004704E+00   8.0895527013366474E+04
   2.6000000000000000E+03   2.2991328670350927E+02   2.8454548156635258E+02   1.1974768183448414E+03   5.9280277677123374E+00   8.7418361453842474E+04
   2.7000000000000000E+03   2.4588068623957702E+02   3.0910791312958906E+02   1.2020717899679562E+03   5.9268796670770882E+00   9.4163431761370171E+04
   2.8000000000000000E+03   2.6183890598715590E+02   3.3477586162710833E+02   1.2018234733029326E+03   5.9262847857136638E+00   1.0113824814024073E+05
   2.9000000000000000E+03   2.7803257524011309E+02   3.6155933314442274E+02   1.2035098095320079E+03   5.9262177144111456E+00   1.0835022652228244E+05
   3.0000000000000000E+03   2.9439995404567628E+02   3.8946778851934101E+02   1.2060787928658206E+03   5.9266502610081648E+00   1.1580654024313469E+05
   3.1000000000000000E+03   3.1057486851478683E+02   4.1851036889265436E+02   1.2042266199338762E+03   5.9275526264706073E+00   1.2351405251079040E+05
   3.2000000000000000E+03   3.2656655353405142E+02   4.4869596560116543E+02   1.1997854782964439E+03   5.9288942924413961E+00   1.3147931165663464E+05
   3.3000000000000000E+03   3.4296197382125405E+02   4.8003317303682172E+02   1.2010774361539980E+03   5.9306446640967225E+00   1.3970855742749010E+05
   3.4000000000000000E+03   3.5929415578463318E+02   5.1253015929637809E+02   1.2017351449944424E+03   5.9327735169650007E+00   1.4820773335155155E+05
   3.5000000000000000E+03   3.7562126673449461E+02   5.4619448298165480E+02   1.2027812343274447E+03   5.9352512940755711E+00   1.5698248813021611E+05
   3.6000000000000000E+03   3.9225763649867895E+02   5.8103287790530408E+02   1.2073330258613105E+03   5.9380492914757648E+00   1.6603814569825746E+05
   3.7000000000000000E+03   4.0860987433305405E+02   6.1705102184837847E+02   1.2096130898339632E+03   5.9411397654791136E+00   1.7537966694964512E+05
   3.8000000000000000E+03   4.2452904208882836E+02   6.5425330120818205E+02   1.2090561454419922E+03   5.9444959862894802E+00   1.8501158609615159E+05
   3.9000000000000000E+03   4.4074361004213256E+02   6.9264258030555186E+02   1.2119056739038167E+03   5.9480922565576435E+00   1.9493793050677443E+05
   4.0000000000000000E+03   4.5704630133204000E+02   7.3221998199466566E+02   1.2161716692025500E+03   5.9519039096279016E+00   2.0516213824118488E+05
   4.1000000000000000E+03   4.7316861000873342E+02   7.7298468481336840E+02   1.2199215439315933E+03   5.9559072961442316E+00   2.1568696600052135E+05
   4.2000000000000000E+03   4.8883190979659247E+02   8.1493374090923476E+02   1.2215988348398419E+03   5.9600797659320452E+00   2.2651439166359391E+05
   4.3000000000000000E+03   5.0562368719616035E+02   8.5806191821796369E+02   1.2310140976310167E+03   5.9643996498799829E+00   2.3764553638290442E+05
   4.4000000000000000E+03   5.2214311525485084E+02   9.0236156975579399E+02   1.2391873028282455E+03   5.9688462433315124E+00   2.4908058235644130E+05
   4.5000000000000000E+03   5.3829633594036159E+02   9.4782253224866713E+02   1.2458528925145226E+03   5.9733997926910831E+00   2.6081870705931904E+05
   4.6000000000000000E+03   5.5518948471113424E+02   9.9443205569180543E+02   1.2569324037675360E+03   5.9780414856831428E+00   2.7285804378946719E+05
   4.7000000000000000E+03   5.7175668017368173E+02   1.0421747647901143E+03   1.2666825599679944E+03   5.9827534440951160E+00   2.8519563780451240E+05
   4.8000000000000000E+03   5.8748279312755415E+02   1.0910326525013584E+03   1.2728886686254657E+03   5.9875187193939396E+00   2.9782743359031220E+05
   4.9000000000000000E+03   6.0316312935959968E+02   1.1409851052428965E+03   1.2796058500598192E+03   5.9923212896576645E+00   3.1074828911074868E+05
   5.0000000000000000E+03   6.1948806589756680E+02   1.1920089586293802E+03   1.2897962916085114E+03   5.9971460569940946E+00   3.2395198279902147E+05
   5.1000000000000000E+03   6.3562795797231740E+02   1.2440785819770294E+03   1.2996471651461923E+03   6.0019788446184865E+00   3.3743125977093779E+05
   5.2000000000000000E+03   6.5331237438050766E+02   1.2971659892539567E+03   1.3162224655238006E+03   6.0068063925188264E+00   3.5117788421743299E+05
   5.3000000000000000E+03   6.6925891979391349E+02   1.3512409736780221E+03   1.3260320697217417E+03   6.0116163510754701E+00   3.6518270321210829E+05
   5.4000000000000000E+03   6.8553256733318744E+02   1.4062712627983196E+03   1.3375787302926265E+03   6.0163972721481382E+00   3.7943572270329198E+05
   5.5000000000000000E+03   7.0097182813326060E+02   1.4622226906498038E+03   1.3464377685095283E+03   6.0211385968997062E+00   3.9392620037603605E+05
   5.6000000000000000E+03   7.1709372984310653E+02   1.5190593834241449E+03   1.3582975209083756E+03   6.0258306404541395E+00   4.0864273173919297E+05
   5.7000000000000000E+03   7.3272762684756231E+02   1.5767439550880456E+03   1.3688406464438917E+03   6.0304645725606445E+00   4.2357334777243406E+05
   5.8000000000000000E+03   7.5001380770682908E+02   1.6352377094379144E+03   1.3854696631699139E+03   6.0350323954816290E+00   4.3870561868760479E+05
   5.9000000000000000E+03   7.6597110754511516E+02   1.6945008452748853E+03   1.3978428869330157E+03   6.0395269177894706E+00   4.5402674249718775E+05
   6.0000000000000000E+03   7.8225305220715450E+02   1.7544926615999516E+03   1.4116450578152967E+03   6.0439417257280015E+00   4.6952365449745540E+05
   6.1000000000000000E+03   7.9867459103173917E+02   1.8151717600487621E+03   1.4262032470894458E+03   6.0482711513107992E+00   4.8518311080757756E+05
   6.2000000000000000E+03   8.1429174844261001E+02   1.8764962421104110E+03   1.4385322365355692E+03   6.0525102381303393E+00   5.0099177473905822E+05
   6.3000000000000000E+03   8.3015583330990694E+02   1.9384238990436820E+03   1.4519897820506205E+03   6.0566547057059728E+00   5.1693631148391269E+05
   6.4000000000000000E+03   8.4735143228317554E+02   2.0009123927692597E+03   1.4697757985600983E+03   6.0607009115428117E+00   5.3300344770223391E+05
   6.5000000000000000E+03   8.6181091566513521E+02   2.0639194263802019E+03   1.4796570150308053E+03   6.0646458128009462E+00   5.4918005368852254E+05
   6.6000000000000000E+03   8.7833974661907325E+02   2.1274029032600947E+03   1.4959872261632802E+03   6.0684869273315094E+00   5.6545320000060403E+05
   6.7000000000000000E+03   8.9374730278704203E+02   2.1913210741095954E+03   1.5093456285954858E+03   6.0722222938847628E+00   5.8181020667335414E+05
   6.8000000000000000E+03   9.0913264207163093E+02   2.2556326714923948E+03   1.5229626775865186E+03   6.0758504336332058E+00   5.9823869754009228E+05
   6.9000000000000000E+03   9.2351815807983530E+02   2.3202970317363634E+03   1.5341271845970123E+03   6.0793703113050483E+00   6.1472663814314967E+05
   7.0000000000000000E+03   9.3708550381484395E+02   2.3852742042710211E+03   1.5434493300091169E+03   6.0827812976814251E+00   6.3126236661898217E+05
   7.1000000000000000E+03   9.5304046237779426E+02   2.4505250486498135E+03   1.5595816790660099E+03   6.0860831332138066E+00   6.4783462147008569E+05
   7.2000000000000000E+03   9.6726313866481530E+02   2.5160113196513512E+03   1.5713626242401554E+03   6.0892758927616635E+00   6.6443256051118707E+05
   7.3000000000000000E+03   9.8201920867656088E+02   2.5816957409837269E+03   1.5848671637058619E+03   6.0923599523269809E+00   6.8104578771133395E+05
   7.4000000000000000E+03   9.9642790140963189E+02   2.6475420681728483E+03   1.5977603729576085E+03   6.0953359569090173E+00   6.9766434706986626E+05
   7.5000000000000000E+03   1.0099347541499938E+03   2.7135151413072663E+03   1.6086550818370288E+03   6.0982047905507883E+00   7.1427874498359405E+05
   7.6000000000000000E+03   1.0249684722577056E+03   2.7795809283222302E+03   1.6237105850765267E+03   6.1009675480658450E+00   7.3087994589958561E+05
   7.7000000000000000E+03   1.0384396851334591E+03   2.8457065595317458E+03   1.6351180146796182E+03   6.1036255085184630E+00   7.4745937299797277E+05
   7.8000000000000000E+03   1.0530446981409418E+03   2.9118603541242633E+03   1.6496090388346042E+03   6.1061801107006968E+00   7.6400890760632488E+05
   7.9000000000000000E+03   1.0695574356514496E+03   2.9780118393200109E+03   1.6689708174741020E+03   6.1086329305089588E+00   7.8052088495225075E+05
   8.0000000000000000E+03   1.0828433943766181E+03   3.0441317628601550E+03   1.6806901137000439E+03   6.1109856598791206E+00   7.9698808529979060E+05
   8.1000000000000000E+03   1.0965294863735376E+03   3.1101920994882535E+03   1.6936389061222551E+03   6.1132400876698672E+00   8.1340372413137753E+05
   8.2000000000000000E+03   1.1090131276791551E+03   3.1761660520294695E+03   1.7039909364695959E+03   6.1153980820071236E+00   8.2976144565620332E+05
   8.3000000000000000E+03   1.1220869147971234E+03   3.2420280476644343E+03   1.7160086161303905E+03   6.1174615746497958E+00   8.4605531107949093E+05
   8.4000000000000000E+03   1.1358066901669654E+03   3.3077537299110472E+03   1.7297699930567278E+03   6.1194325463052497E+00   8.6227978641808103E+05
   8.5000000000000000E+03   1.1491093989565427E+03   3.3733199468407815E+03   1.7427817974740010E+03   6.1213130137224701E+00   8.7842972804586252E+05
   8.6000000000000000E+03   1.1631877683251455E+03   3.4387047359849062E+03   1.7577804712627653E+03   6.1231050181977400E+00   8.9450037598900532E+05
   8.7000000000000000E+03   1.1760373909746568E+03   3.5038873063414940E+03   1.7701753273770239E+03   6.1248106149812926E+00   9.1048733341479336E+05
   8.8000000000000000E+03   1.1874843003003016E+03   3.5688480178886662E+03   1.7796319647014966E+03   6.1264318640964470E+00   9.2638655976623483E+05
   8.9000000000000000E+03   1.2005427555144151E+03   3.6335683589508394E+03   1.7929339353616135E+03   6.1279708222789386E+00   9.4219435332838271E+05
   9.0000000000000000E+03   1.2152987135570183E+03   3.6980309217275608E+03   1.8101880690472217E+03   6.1294295356468345E+00   9.5790734091436432E+05
   9.1000000000000000E+03   1.2264075297859140E+03   3.7622193762898219E+03   1.8195412164154000E+03   6.1308100335149929E+00   9.7352246248755325E+05
   9.2000000000000000E+03   1.2372230904538476E+03   3.8261184432903783E+03   1.8284872270575270E+03   6.1321143228427308E+00   9.8903695909495919E+05
   9.3000000000000000E+03   1.2477482885591667E+03   3.8897138656371567E+03   1.8370352214056695E+03   6.1333443836798764E+00   1.0044483615139483E+06
   9.4000000000000000E+03   1.2573981883763963E+03   3.9529923793226030E+03   1.8439294286656714E+03   6.1345021650268885E+00   1.0197544755006598E+06
   9.5000000000000000E+03   1.2672862373669518E+03   4.0159416836094397E+03   1.8515771529908677E+03   6.1355895814011348E+00   1.0349533705993119E+06
   9.6000000000000000E+03   1.2770389581309146E+03   4.0785504107420134E+03   1.8591634749034972E+03   6.1366085100607162E+00   1.0500433675461556E+06
   9.7000000000000000E+03   1.2865936921815094E+03   4.1408080953306235E+03   1.8665512899481298E+03   6.1375607887396972E+00   1.0650230285586936E+06
   9.8000000000000000E+03   1.2951603682409175E+03   4.2027051435290668E+03   1.8720871257302181E+03   6.1384482134807206E+00   1.0798911433787756E+06
   9.9000000000000000E+03   1.3045061325752454E+03   4.2642328021577841E+03   1.8794701207756996E+03   6.1392725374174031E+00   1.0946467195570229E+06
   1.0000000000000000E+04   1.3133147033038711E+03   4.3253831278394473E+03   1.8859429662823518E+03   6.1400354694105932E+00   1.1092889715400061E+06
   1.0100000000000000E+04   1.3218032877894725E+03   4.3861489562738479E+03   1.8919621799732013E+03   6.1407386733908345E+00   1.1238173106088939E+06
   1.0200000000000000E+04   1.3317909316666398E+03   4.4465238717068805E+03   1.9012352852639603E+03   6.1413837676278167E+00   1.1382313335136429E+06
   1.0300000000000000E+04   1.3403074379611242E+03   4.5065021766948330E+03   1.9076837923834603E+03   6.1419723246329596E+00   1.1525308144143876E+06
   1.0400000000000000E+04   1.3486020611543372E+03   4.5660788621955280E+03   1.9138672151287738E+03   6.1425058708184688E+00   1.1667156936659131E+06
   1.0500000000000000E+04   1.3567079374310467E+03   4.6252495780786148E+03   1.9198509626255286E+03   6.1429858868139320E+00   1.1807860700567751E+06
   1.0600000000000000E+04   1.3645011575106864E+03   4.6840106040728388E+03   1.9253862638254886E+03   6.1434138076124167E+00   1.1947421908776537E+06
   1.0700000000000000E+04   1.3709899708326134E+03   4.7423588212109080E+03   1.9285123255618216E+03   6.1437910229844830E+00   1.2085844438434381E+06
   1.0800000000000000E+04   1.3781587839264805E+03   4.8002916838040273E+03   1.9331698513755791E+03   6.1441188780139182E+00   1.2223133485909346E+06
   1.0900000000000000E+04   1.3853378661485808E+03   4.8578071919784807E+03   1.9380169032561107E+03   6.1443986737552638E+00   1.2359295485878952E+06
   1.1000000000000000E+04   1.3930497410706841E+03   4.9149038647928346E+03   1.9440627907100445E+03   6.1446316677939192E+00   1.2494338035897969E+06
   1.1100000000000000E+04   1.4002052557604811E+03   4.9715807139822109E+03   1.9491743521756450E+03   6.1448190752689484E+00   1.2628269815982990E+06
   1.1200000000000000E+04   1.4063964244386134E+03   5.0278372183128067E+03   1.9525743175079956E+03   6.1449620694818847E+00   1.2761100525018531E+06
   1.1300000000000000E+04   1.4121766293855576E+03   5.0836732985989092E+03   1.9553455363071148E+03   6.1450617829682477E+00   1.2892840799655055E+06
   1.1400000000000000E+04   1.4189462895625393E+03   5.1390892933646728E+03   1.9601643477408174E+03   6.1451193083011626E+00   1.3023502153848265E+06
   1.1500000000000000E+04   1.4248072542829536E+03   5.1940859351808640E+03   1.9633919235846481E+03   6.1451356991141788E+00   1.3153096918022723E+06
   1.1600000000000000E+04   1.4304662354713664E+03   5.2486643276736022E+03   1.9663822883871567E+03   6.1451119710997082E+00   1.3281638159573202E+06
   1.1700000000000000E+04   1.4358321323886687E+03   5.3028259232078053E+03   1.9689630407688148E+03   6.1450491029344221E+00   1.3409139642262715E+06
   1.1800000000000000E+04   1.4408068470260816E+03   5.3565725012563535E+03   1.9709520481809520E+03   6.1449480373264072E+00   1.3535615760229940E+06
   1.1900000000000000E+04   1.4462040289318961E+03   5.4099061474506525E+03   1.9738688308672265E+03   6.1448096820623315E+00   1.3661081469988483E+06
   1.2000000000000000E+04   1.4506639898372516E+03   5.4628292333073059E+03   1.9751752907702239E+03   6.1446349109571647E+00   1.3785552260419850E+06
   1.2100000000000000E+04   1.4554847773654781E+03   5.5153443966368204E+03   1.9772850699388578E+03   6.1444245649013709E+00   1.3909044075973202E+06
   1.2200000000000000E+04   1.4598061371358060E+03   5.5674545226218961E+03   1.9786027229266274E+03   6.1441794528106115E+00   1.4031573291711283E+06
   1.2300000000000000E+04   1.4639455806277933E+03   5.6191627255685080E+03   1.9797156567233533E+03   6.1439003526729428E+00   1.4153156643025619E+06
   1.2400000000000000E+04   1.4749562524463527E+03   5.6704723313126951E+03   1.9934850593287763E+03   6.1435880124498228E+00   1.4273811193204888E+06
   1.2500000000000000E+04   1.4753495037852279E+03   5.7213868602884186E+03   1.9879818655767631E+03   6.1432431511232890E+00   1.4393554291344800E+06
   1.2600000000000000E+04   1.4795970957880058E+03   5.7719100112341230E+03   1.9896269116447017E+03   6.1428664595726437E+00   1.4512403513160900E+06
   1.2700000000000000E+04   1.4819933923485821E+03   5.8220456455383655E+03   1.9880482246033446E+03   6.1424586014998388E+00   1.4630376647685687E+06
   1.2800000000000000E+04   1.4854776866431994E+03   5.8717977722135347E+03   1.9885517702637771E+03   6.1420202143792224E+00   1.4747491642612664E+06
   1.2900000000000000E+04   1.4888042174972402E+03   5.9211705334804228E+03   1.9888842740676321E+03   6.1415519102855276E+00   1.4863766550664199E+06
   1.3000000000000000E+04   1.4938051619571111E+03   5.9701681909622021E+03   1.9923022336715271E+03   6.1410542768192737E+00   1.4979219542852519E+06
   1.3100000000000000E+04   1.4953181425481391E+03   6.0187951124651736E+03   1.9896229355876023E+03   6.1405278778860302E+00   1.5093868816214097E+06
   1.3200000000000000E+04   1.4987017717286460E+03   6.0670557593439025E+03   1.9903683559451376E+03   6.1399732545487575E+00   1.5207732619137343E+06
   1.3300000000000000E+04   1.5022855163731715E+03   6.1149546744326653E+03   1.9915600980459760E+03   6.1393909258314405E+00   1.5320829181899109E+06
