#Te   kappa_tot   kappa_e_ph  kappa_e_e mu Ce
#[K]  [W/(K*m)]   [W/(K*m)]   [W/(K*m)]   [eV]  [J/(m^3*K)]
   1.0000000000000000E+02   1.1122783527744822E-73   1.1592173768612318E-73   2.7469092498809346E-72  -4.3452125999501812E+00   1.3007460484751736E-62
   2.0000000000000000E+02   1.7775696607930841E-36   1.8662752734010005E-36   3.7398245806036861E-35  -4.3452125999501812E+00   2.5667184434494336E-29
   3.0000000000000000E+02   4.4580031106445234E-24   4.7253208466991940E-24   7.8803207539772775E-23  -4.3452125999501812E+00   6.9395756555490832E-18
   4.0000000000000000E+02   7.7615060608997984E-18   8.2985630038808069E-18   1.1993020087193483E-16  -4.3452125999501812E+00   4.1476171354542705E-12
   5.0000000000000000E+02   7.1734834348748970E-14   7.6795388971673509E-14   1.0885969853334204E-12  -4.3452125999501812E+00   1.2574335127617365E-08
   6.0000000000000000E+02   5.9576190918980200E-11   6.4020857143068615E-11   8.5813391054678578E-10  -4.3452125999501812E+00   2.6599483014359860E-06
   7.0000000000000000E+02   9.1954273208772110E-09   9.9674254695114949E-09   1.1872403663570530E-07  -4.3452125999501812E+00   1.2210582088767488E-04
   8.0000000000000000E+02   1.9576022563507604E-06   2.0646746468985106E-06   3.7748402989062292E-05  -4.6059577668892056E+00   3.5943993692053933E-04
   9.0000000000000000E+02   3.2746608059857939E-05   3.5065828149003533E-05   4.9511770619095640E-04  -4.5733646210218266E+00   4.0289387500319577E-03
   1.0000000000000000E+03   2.6436898651020351E-04   2.8479573882997085E-04   3.6859095199408371E-03  -4.5794758358719605E+00   3.3417896200216998E-02
   1.1000000000000000E+03   1.4843835100427751E-03   1.6118121077963198E-03   1.8775591635462302E-02  -4.5789665679677833E+00   1.8571114852640527E-01
   1.2000000000000000E+03   6.2294393751432791E-03   6.8192771737970734E-03   7.2020263593519082E-02  -4.5790938849438279E+00   7.6878733073135863E-01
   1.3000000000000000E+03   2.0970057526888779E-02   2.3153292875374484E-02   2.2238824773072147E-01  -4.5787437632597037E+00   2.5621668799287165E+00
   1.4000000000000000E+03   5.9369117006435733E-02   6.6144962617423572E-02   5.7955394064057408E-01  -4.5779639467814350E+00   7.1839543534571115E+00
   1.5000000000000000E+03   1.4607531718491867E-01   1.6459382341643103E-01   1.2983279893990742E+00  -4.5768021793750284E+00   1.7541149131022301E+01
   1.6000000000000000E+03   3.2171484997700484E-01   3.6615580943601339E-01   2.6506574730811123E+00  -4.5752544823849890E+00   3.8281224891351755E+01
   1.7000000000000000E+03   6.4584024724232025E-01   7.4279275566240854E-01   4.9480458503270324E+00  -4.5733298077861892E+00   7.6170861261485996E+01
   1.8000000000000000E+03   1.2001580328525348E+00   1.3954562247516515E+00   8.5754403629854714E+00  -4.5710321342341373E+00   1.4038044682932986E+02
   1.9000000000000000E+03   2.0897078838394587E+00   2.4574385134058088E+00   1.3964919488949633E+01  -4.5683763816869600E+00   2.4257522702608736E+02
   2.0000000000000000E+03   3.4425750090800400E+00   4.0961939038668929E+00   2.1574429500537459E+01  -4.5653784647666651E+00   3.9689847451537651E+02
   2.1000000000000000E+03   5.3952111428796226E+00   6.5135544868178457E+00   3.1423267226039325E+01  -4.5620557900910681E+00   6.1981930507221614E+02
   2.2000000000000000E+03   8.1131969138697784E+00   9.9444776324589306E+00   4.4057420808684761E+01  -4.5584270697743250E+00   9.2986309647088990E+02
   2.3000000000000000E+03   1.1773080217233437E+01   1.4654575824583263E+01   5.9874981690854547E+01  -4.5545116375955113E+00   1.3473059629545601E+03
   2.4000000000000000E+03   1.6560388599732022E+01   2.0936709645586429E+01   7.9226373956067363E+01  -4.5503292624991545E+00   1.8938216285130673E+03
   2.5000000000000000E+03   2.2621476953918467E+01   2.9106942432684971E+01   1.0152579326738577E+02  -4.5458998999292470E+00   2.5921036820000081E+03
   2.6000000000000000E+03   3.0165247243005599E+01   3.9500144357075023E+01   1.2764271594056680E+02  -4.5412432255805797E+00   3.4655575653278506E+03
   2.7000000000000000E+03   3.9350261111612376E+01   5.2465425888305333E+01   1.5741534652356398E+02  -4.5363787908149487E+00   4.5379347213464844E+03
   2.8000000000000000E+03   5.0321044412223898E+01   6.8361626804599979E+01   1.9068278305582319E+02  -4.5313257429119540E+00   5.8330564932293582E+03
   2.9000000000000000E+03   6.3228709445687635E+01   8.7552976793372778E+01   2.2758595980075961E+02  -4.5261026618819580E+00   7.3745647186682581E+03
   3.0000000000000000E+03   7.8192346259451313E+01   1.1040499668318500E+02   2.6799489069873823E+02  -4.5207275760076948E+00   9.1856739587744923E+03
   3.1000000000000000E+03   9.5194109391020916E+01   1.3728073347908330E+02   3.1050998846434419E+02  -4.5152178375113081E+00   1.1288989869621380E+04
   3.2000000000000000E+03   1.1426511804904631E+02   1.6853734041156613E+02   3.5483969993274815E+02  -4.5095900759294638E+00   1.3706349553052767E+04
   3.3000000000000000E+03   1.3562968785658856E+02   2.0452302371718298E+02   4.0264262892390360E+02  -4.5038601553738884E+00   1.6458654154507250E+04
   3.4000000000000000E+03   1.5919756151026724E+02   2.4557435957573833E+02   4.5260810876863411E+02  -4.4980431356773218E+00   1.9565796626045714E+04
   3.5000000000000000E+03   1.8499381540906484E+02   2.9201396686471651E+02   5.0477201861768935E+02  -4.4921532607372958E+00   2.3046538075517266E+04
   3.6000000000000000E+03   2.1296611329604039E+02   3.4414852903481267E+02   5.5870273628015968E+02  -4.4862039468599031E+00   2.6918424679663443E+04
   3.7000000000000000E+03   2.4345992041336925E+02   4.0226715122072562E+02   6.1669691060801460E+02  -4.4802077711036050E+00   3.1197766236240692E+04
   3.8000000000000000E+03   2.7595895006812731E+02   4.6664001455237008E+02   6.7533443251932897E+02  -4.4741764984770436E+00   3.5899530835004480E+04
   3.9000000000000000E+03   3.1029976201493372E+02   5.3751734330864849E+02   7.3406073050292980E+02  -4.4681210702828560E+00   4.1037375171130996E+04
   4.0000000000000000E+03   3.4656376218035416E+02   6.1512862278854868E+02   7.9377953338961413E+02  -4.4620516390863001E+00   4.6623576528282334E+04
   4.1000000000000000E+03   3.8441839985985979E+02   6.9968207561488896E+02   8.5316097160365700E+02  -4.4559775881422921E+00   5.2669050446547451E+04
   4.2000000000000000E+03   4.2433233707251861E+02   7.9136436854054944E+02   9.1491058869061737E+02  -4.4499075527651373E+00   5.9183336390812299E+04
   4.3000000000000000E+03   4.6548196487340385E+02   8.9034051084423163E+02   9.7547161125627849E+02  -4.4438494630680028E+00   6.6174615442984024E+04
   4.4000000000000000E+03   5.0760850237955219E+02   9.9675395894858991E+02   1.0343769476909620E+03  -4.4378105614472290E+00   7.3649739348863004E+04
   4.5000000000000000E+03   5.5191555532377890E+02   1.1107268628259669E+03   1.0970204523057760E+03  -4.4317974482358560E+00   8.1614227553333549E+04
   4.6000000000000000E+03   5.9694222261406526E+02   1.2323604712533245E+03   1.1577382304443695E+03  -4.4258161098728133E+00   9.0072333416594032E+04
   4.7000000000000000E+03   6.4300424648050182E+02   1.3617356533605303E+03   1.2182601168017111E+03  -4.4198719558142727E+00   9.9027066344868887E+04
   4.8000000000000000E+03   6.8997747690244557E+02   1.4989135252497331E+03   1.2784899057963078E+03  -4.4139698544736623E+00   1.0848025351326341E+05
   4.9000000000000000E+03   7.3774017041338243E+02   1.6439361679226040E+03   1.3383393349843209E+03  -4.4081141652762392E+00   1.1843256478450650E+05
   5.0000000000000000E+03   7.8617015543396167E+02   1.7968274072864563E+03   1.3977162677902268E+03  -4.4023087765418287E+00   1.2888358768159727E+05
   5.1000000000000000E+03   8.3496010572516207E+02   1.9575936623050752E+03   1.4559627241365131E+03  -4.3965571326826307E+00   1.3983188772357532E+05
   5.2000000000000000E+03   8.8414626463794593E+02   2.1262248210306443E+03   1.5135063105464144E+03  -4.3908622701432591E+00   1.5127504353245333E+05
   5.3000000000000000E+03   9.3364631312089534E+02   2.3026951508527559E+03   1.5703624140953511E+03  -4.3852268475125982E+00   1.6320972581980494E+05
   5.4000000000000000E+03   9.8231457754953067E+02   2.4869642289171720E+03   1.6236212952889298E+03  -4.3796531727216763E+00   1.7563175772760747E+05
   5.5000000000000000E+03   1.0296823514041253E+03   2.6789778762829224E+03   1.6725299968381009E+03  -4.3741432312128410E+00   1.8853616689446679E+05
   5.6000000000000000E+03   1.0818633466319823E+03   2.8786690923446104E+03   1.7332572458214297E+03  -4.3686987116805662E+00   2.0191726176260650E+05
   5.7000000000000000E+03   1.1316486677745120E+03   3.0859589736873954E+03   1.7869328892214378E+03  -4.3633210337549855E+00   2.1576866152510908E+05
   5.8000000000000000E+03   1.1813622766414480E+03   3.3007576317834009E+03   1.8398599114906995E+03  -4.3580113669432308E+00   2.3008338617245975E+05
   5.9000000000000000E+03   1.2309351014829508E+03   3.5229650774677639E+03   1.8920090141013093E+03  -4.3527706549132352E+00   2.4485390441041894E+05
   6.0000000000000000E+03   1.2795222655884404E+03   3.7524720851438146E+03   1.9415564141143223E+03  -4.3475996358920819E+00   2.6007217556177237E+05
   6.1000000000000000E+03   1.3306458387087177E+03   3.9891610313609726E+03   1.9966636041766583E+03  -4.3424988606360477E+00   2.7572971434277989E+05
   6.2000000000000000E+03   1.3792734947604486E+03   4.2329066974664192E+03   2.0459307832811826E+03  -4.3374687113719146E+00   2.9181764084552886E+05
   6.3000000000000000E+03   1.4274735136904515E+03   4.4835770430085613E+03   2.0942312372883885E+03  -4.3325094178243084E+00   3.0832673055259063E+05
   6.4000000000000000E+03   1.4791235297947173E+03   4.7410339419445563E+03   2.1498367438190289E+03  -4.3276210732429590E+00   3.2524743456369202E+05
   6.5000000000000000E+03   1.5213811005025414E+03   5.0051338880989588E+03   2.1857796942280338E+03  -4.3228036475159817E+00   3.4256996719778108E+05
   6.6000000000000000E+03   1.5679707951065745E+03   5.2757286590852609E+03   2.2310487264332346E+03  -4.3180570014972757E+00   3.6028430658262636E+05
   6.7000000000000000E+03   1.6143103341675508E+03   5.5526659485949085E+03   2.2760072732285157E+03  -4.3133808986627633E+00   3.7838025810397795E+05
   6.8000000000000000E+03   1.6596254416950017E+03   5.8357899605059065E+03   2.3191676111461202E+03  -4.3087750167666092E+00   3.9684747143188986E+05
   6.9000000000000000E+03   1.7142090867062834E+03   6.1249419707926863E+03   2.3804278014120246E+03  -4.3042389575547180E+00   4.1567548797968560E+05
   7.0000000000000000E+03   1.7607605497652567E+03   6.4199608511274828E+03   2.4261703868789800E+03  -4.2997722569639425E+00   4.3485375825281604E+05
   7.1000000000000000E+03   1.8051860334033327E+03   6.7206835606383083E+03   2.4681294276659091E+03  -4.2953743938642353E+00   4.5437168209072860E+05
   7.2000000000000000E+03   1.8543410824079101E+03   7.0269456081325516E+03   2.5191088667619679E+03  -4.2910447971009464E+00   4.7421862413348426E+05
   7.3000000000000000E+03   1.8994694065223875E+03   7.3385814743934443E+03   2.5628100366276112E+03  -4.2867828544798305E+00   4.9438394224807853E+05
   7.4000000000000000E+03   1.9425238026611992E+03   7.6554250168290000E+03   2.6030286114171117E+03  -4.2825879171381249E+00   5.1485701479610603E+05
   7.5000000000000000E+03   1.9849377635845676E+03   7.9773098294645451E+03   2.6424366441594202E+03  -4.2784593080438782E+00   5.3562723923846893E+05
   7.6000000000000000E+03   2.0266156755369236E+03   8.3040695891831310E+03   2.6808890724954631E+03  -4.2743963256385120E+00   5.5668407728372759E+05
   7.7000000000000000E+03   2.0677828364235625E+03   8.6355383680407322E+03   2.7188006518742955E+03  -4.2703982491792525E+00   5.7801706419959036E+05
   7.8000000000000000E+03   2.1084664227208314E+03   8.9715509191122001E+03   2.7562262831857147E+03  -4.2664643438387415E+00   5.9961579959697102E+05
   7.9000000000000000E+03   2.1412381121526782E+03   9.3119429431205572E+03   2.7806314160207321E+03  -4.2625938639833238E+00   6.2146999255717057E+05
   8.0000000000000000E+03   2.1795154358716204E+03   9.6565513281075237E+03   2.8148323721103934E+03  -4.2587860571798908E+00   6.4356945196137053E+05
   8.1000000000000000E+03   2.2172774814859840E+03   1.0005214370542444E+04   2.8485511422693930E+03  -4.2550401669885103E+00   6.6590410475668719E+05
   8.2000000000000000E+03   2.2514690099338618E+03   1.0357771972821489E+04   2.8767987966319456E+03  -4.2513554362407318E+00   6.8846400587831717E+05
   8.3000000000000000E+03   2.2926510091486853E+03   1.0714065825422484E+04   2.9168036918538705E+03  -4.2477311089822996E+00   7.1123934124817431E+05
   8.4000000000000000E+03   2.3266678404710347E+03   1.1073939566431502E+04   2.9455331746547336E+03  -4.2441664332657778E+00   7.3422043489039782E+05
   8.5000000000000000E+03   2.3708788722098689E+03   1.1437238928254930E+04   2.9908704225060933E+03  -4.2406606626075822E+00   7.5739776115860697E+05
   8.6000000000000000E+03   2.4080149647539361E+03   1.1803811866969703E+04   3.0251564516150934E+03  -4.2372130575664286E+00   7.8076195071921835E+05
   8.7000000000000000E+03   2.4506250147901810E+03   1.2173508673672664E+04   3.0682980399763769E+03  -4.2338228878074569E+00   8.0430377355098200E+05
   8.8000000000000000E+03   2.4767254046791995E+03   1.2546182077083948E+04   3.0859110767317911E+03  -4.2304894327093114E+00   8.2801416368837294E+05
   8.9000000000000000E+03   2.5103273524702176E+03   1.2921687330343777E+04   3.1156030734089550E+03  -4.2272119824569332E+00   8.5188422629576770E+05
   9.0000000000000000E+03   2.5532034556023482E+03   1.3299882284857180E+04   3.1597953142846818E+03  -4.2239898391343047E+00   8.7590521422766766E+05
   9.1000000000000000E+03   2.5768062130191647E+03   1.3680627454806807E+04   3.1747922679878584E+03  -4.2208223172101516E+00   9.0006855234020203E+05
   9.2000000000000000E+03   2.6088807399635025E+03   1.4063786070033713E+04   3.2030592616737986E+03  -4.2177087441450212E+00   9.2436582909426291E+05
   9.3000000000000000E+03   2.6401499049841582E+03   1.4449224120278601E+04   3.2304071422331376E+03  -4.2146484606341161E+00   9.4878880429477710E+05
   9.4000000000000000E+03   2.6673859633722204E+03   1.4836810387064608E+04   3.2520436784686894E+03  -4.2116408214572507E+00   9.7332938473668683E+05
   9.5000000000000000E+03   2.6990430350306501E+03   1.5226416473573112E+04   3.2805562581085633E+03  -4.2086851948717268E+00   9.9797966285701049E+05
   9.6000000000000000E+03   2.7387841108853058E+03   1.5617916820208417E+04   3.3211943224524202E+03  -4.2057809633408638E+00   1.0227318846050113E+06
   9.7000000000000000E+03   2.7697496381954452E+03   1.6011188716076520E+04   3.3491060822467975E+03  -4.2029275235340018E+00   1.0475784554018554E+06
   9.8000000000000000E+03   2.7944268791783475E+03   1.6406112306653227E+04   3.3681120135197943E+03  -4.2001242857193972E+00   1.0725119560476895E+06
   9.9000000000000000E+03   2.8237454766521064E+03   1.6802570589910803E+04   3.3941466693353495E+03  -4.1973706742498988E+00   1.0975251211597705E+06
   1.0000000000000000E+04   2.8506622546795857E+03   1.7200449410241839E+04   3.4169616152317731E+03  -4.1946661273201249E+00   1.1226108372447409E+06
   1.0100000000000000E+04   2.8724045221596211E+03   1.7599637447844088E+04   3.4326392777689866E+03  -4.1920100966021776E+00   1.1477621564558512E+06
   1.0200000000000000E+04   2.8983302135568406E+03   1.8000026204073005E+04   3.4545801891947972E+03  -4.1894020467599971E+00   1.1729722873225962E+06
   1.0300000000000000E+04   2.9315046860176890E+03   1.8401509978182559E+04   3.4870132047184647E+03  -4.1868414558136093E+00   1.1982345888392485E+06
   1.0400000000000000E+04   2.9582474596603101E+03   1.8803985845783842E+04   3.5105239026596678E+03  -4.1843278144105946E+00   1.2235425682781385E+06
   1.0500000000000000E+04   2.9845536045781878E+03   1.9207353632694809E+04   3.5336302253318477E+03  -4.1818606253404411E+00   1.2488898912672689E+06
   1.0600000000000000E+04   3.0050298238272517E+03   1.9611515882510241E+04   3.5488055636304139E+03  -4.1794394036559330E+00   1.2742703613696711E+06
   1.0700000000000000E+04   3.0266941757712862E+03   2.0016377825230724E+04   3.5658965424933585E+03  -4.1770636760660853E+00   1.2996779278908691E+06
   1.0800000000000000E+04   3.0495760126209334E+03   2.0421847342878256E+04   3.5849069247369162E+03  -4.1747329804504574E+00   1.3251066815556455E+06
   1.0900000000000000E+04   3.0738580707662431E+03   2.0827834932347876E+04   3.6060545196453049E+03  -4.1724468654948703E+00   1.3505508627516208E+06
   1.1000000000000000E+04   3.1008200038933778E+03   2.1234253664390075E+04   3.6310607115587763E+03  -4.1702048906914584E+00   1.3760048382248026E+06
   1.1100000000000000E+04   3.1209697015895654E+03   2.1641019146288851E+04   3.6469106234712790E+03  -4.1680066253672754E+00   1.4014631176487932E+06
   1.1200000000000000E+04   3.1463461163200855E+03   2.2048049477199012E+04   3.6700816598675301E+03  -4.1658516488057247E+00   1.4269203343054005E+06
   1.1300000000000000E+04   3.1749771883479525E+03   2.2455265206649554E+04   3.6978158584425632E+03  -4.1637395495787617E+00   1.4523712641077593E+06
   1.1400000000000000E+04   3.1978632075954210E+03   2.2862589290433600E+04   3.7178973566302866E+03  -4.1616699251826361E+00   1.4778107975728679E+06
   1.1500000000000000E+04   3.2204386860768495E+03   2.3269947045716606E+04   3.7377194664703461E+03  -4.1596423816736259E+00   1.5032339654908308E+06
   1.1600000000000000E+04   3.2406884873364515E+03   2.3677266104485469E+04   3.7545740345497179E+03  -4.1576565334859197E+00   1.5286359129497968E+06
   1.1700000000000000E+04   3.2606543210378509E+03   2.4084476369304746E+04   3.7712170110502566E+03  -4.1557120027638090E+00   1.5540119078730515E+06
   1.1800000000000000E+04   3.2814549964839325E+03   2.4491509965998350E+04   3.7891362311354374E+03  -4.1538084191795548E+00   1.5793573410085009E+06
   1.1900000000000000E+04   3.3021041330327944E+03   2.4898301197168817E+04   3.8070028276043463E+03  -4.1519454195691381E+00   1.6046677172421652E+06
   1.2000000000000000E+04   3.3247316397502814E+03   2.5304786494933429E+04   3.8276348649326328E+03  -4.1501226476894164E+00   1.6299386578108405E+06
   1.2100000000000000E+04   3.3361389859763385E+03   2.5710904375824903E+04   3.8335664735870387E+03  -4.1483397536110376E+00   1.6551658960478278E+06
   1.2200000000000000E+04   3.3573505838139331E+03   2.6116595392269443E+04   3.8526131919321101E+03  -4.1465963937184256E+00   1.6803452796679072E+06
   1.2300000000000000E+04   3.3755905501694624E+03   2.6521802087478285E+04   3.8678789552947101E+03  -4.1448922301634061E+00   1.7054727600813934E+06
   1.2400000000000000E+04   3.3904967034740607E+03   2.6926468947764202E+04   3.8789179072786874E+03  -4.1432269308045013E+00   1.7305444034225978E+06
   1.2500000000000000E+04   3.4072913909804247E+03   2.7330542357737086E+04   3.8925780536995449E+03  -4.1416001687212329E+00   1.7555563691845909E+06
   1.2600000000000000E+04   3.4484574735605574E+03   2.7733970554489457E+04   3.9381263105881017E+03  -4.1400116219713201E+00   1.7805049363575617E+06
   1.2700000000000000E+04   3.4556700257210841E+03   2.8136703580782687E+04   3.9395093795320254E+03  -4.1384609735906395E+00   1.8053864714479432E+06
   1.2800000000000000E+04   3.4871990372217542E+03   2.8538693243532525E+04   3.9726214645249897E+03  -4.1369479108040199E+00   1.8301974503002886E+06
   1.2900000000000000E+04   3.5048095024171503E+03   2.8939893065148004E+04   3.9877522699507481E+03  -4.1354721255109377E+00   1.8549344392412137E+06
   1.3000000000000000E+04   3.5219563729143952E+03   2.9340258243579166E+04   4.0023976023511837E+03  -4.1340333134355518E+00   1.8795941061351008E+06
   1.3100000000000000E+04   3.5392836480374513E+03   2.9739745607484849E+04   4.0173870021177581E+03  -4.1326311741874235E+00   1.9041732164405831E+06
