#Te   kappa_tot   kappa_e_ph  kappa_e_e mu Ce
#[K]  [W/(K*m)]   [W/(K*m)]   [W/(K*m)]   [eV]  [J/(m^3*K)]
   3.0000000000000000E+02   9.5296194193879494E-20   5.1776945287880978E-05   9.5296194193879662E-20   1.0422919166622568E+00   1.4655535534370960E+01
   4.0000000000000000E+02   3.7306528352650055E-13   6.7030383436088704E-04   3.7306528373413430E-13   1.0422919166622568E+00   1.0369023152479625E+02
   5.0000000000000000E+02   3.0626890719226052E-09   4.0402861240199529E-03   3.0626913935580472E-09   1.0380462586417019E+00   3.3092781901572852E+02
   6.0000000000000000E+02   1.1778542737702484E-06   1.9533428306600004E-02   1.1779253019752993E-06   1.0335996039675452E+00   7.3886827450410169E+02
   7.0000000000000000E+02   7.9873409116698282E-05   7.4423088718627239E-02   7.9959224096012307E-05   1.0288888637847922E+00   1.3423019888694853E+03
   8.0000000000000000E+02   1.8274534732695808E-03   2.2226309966011301E-01   1.8426034104722707E-03   1.0238069217774561E+00   2.1454429481086418E+03
   9.0000000000000000E+02   1.9790892293884463E-02   5.4241076101015118E-01   2.0540346038821936E-02   1.0182684474951496E+00   3.1528540490795099E+03
   1.0000000000000000E+03   1.2365496173370655E-01   1.1321310879356250E+00   1.3881699597932728E-01   1.0122138790351971E+00   4.3753183769751531E+03
   1.1000000000000000E+03   5.0144725380532373E-01   2.0961326762661945E+00   6.5912684678791444E-01   1.0056075704019543E+00   5.8303355197300061E+03
   1.2000000000000000E+03   1.4188932082777879E+00   3.5372440502541402E+00   2.3692824906397831E+00   9.9843313266037392E-01   7.5398317647919594E+03
   1.3000000000000000E+03   3.0871750513938809E+00   5.5497809298786356E+00   6.9573232879493121E+00   9.9068846053695092E-01   9.5268758914912760E+03
   1.4000000000000000E+03   5.5907949610007863E+00   8.2156578087605130E+00   1.7498841250973257E+01   9.8238154911742270E-01   1.1812877394793226E+04
   1.5000000000000000E+03   8.9133026589556472E+00   1.1602631961699919E+01   3.8454855717956562E+01   9.7352736751561531E-01   1.4415673076600304E+04
   1.6000000000000000E+03   1.3054532147569267E+01   1.5763945599379259E+01   7.5954053620776619E+01   9.6414575483833242E-01   1.7348685456024195E+04
   1.7000000000000000E+03   1.8004096150620775E+01   2.0738769679749932E+01   1.3653651866762263E+02   9.5426010748540646E-01   2.0621009726028755E+04
   1.8000000000000000E+03   2.3809458484230039E+01   2.6553061362629560E+01   2.3043204142996919E+02   9.4389665840311654E-01   2.4238070926891069E+04
   1.9000000000000000E+03   3.0453647344974403E+01   3.3220633714756573E+01   3.6562864016038048E+02   9.3308414921880745E-01   2.8202633523196244E+04
   2.0000000000000000E+03   3.7957534951620069E+01   4.0744362456726833E+01   5.5495202311541618E+02   9.2185373767076839E-01   3.2515941087573043E+04
   2.1000000000000000E+03   4.6270810355361093E+01   4.9117516963346162E+01   7.9836373237840382E+02   9.1023902609134966E-01   3.7178801617998615E+04
   2.2000000000000000E+03   5.5454382335188946E+01   5.8325216840470851E+01   1.1266371741399512E+03   8.9827611837318344E-01   4.2192487168327796E+04
   2.3000000000000000E+03   6.5383249461103802E+01   6.8345998866805189E+01   1.5082893899083419E+03   8.8600364241511798E-01   4.7559400629527372E+04
   2.4000000000000000E+03   7.6142031682622147E+01   7.9153452814079415E+01   2.0013490139262135E+03   8.7346268262962379E-01   5.3283478434296572E+04
   2.5000000000000000E+03   8.7616827085165497E+01   9.0717858534277624E+01   2.5631506984587554E+03   8.6069659495736317E-01   5.9370279668542789E+04
   2.6000000000000000E+03   9.9837435120619105E+01   1.0300774383669331E+02   3.2438572590974427E+03   8.4775067729901010E-01   6.5826846959774819E+04
   2.7000000000000000E+03   1.1269509906034155E+02   1.1599128077629862E+02   3.9656942497860509E+03   8.3467169288751719E-01   7.2661335402751909E+04
   2.8000000000000000E+03   1.2625284038088033E+02   1.2963745096527063E+02   4.8357398867647762E+03   8.2150725078042897E-01   7.9882480423959278E+04
   2.9000000000000000E+03   1.4040771270437349E+02   1.4391693127954744E+02   5.7582754415324780E+03   8.0830506901415355E-01   8.7498975042231788E+04
   3.0000000000000000E+03   1.5519788674830491E+02   1.5880267898006912E+02   6.8369655178751700E+03   7.9511215385689415E-01   9.5518820490404294E+04
   3.1000000000000000E+03   1.7051245668253520E+02   1.7427022225577602E+02   7.9076895948611582E+03   7.8197394376729012E-01   1.0394870364150427E+05
   3.2000000000000000E+03   1.8639320824767859E+02   1.9029768691473842E+02   9.0844897387697256E+03   7.6893347007140633E-01   1.1279349483271402E+05
   3.3000000000000000E+03   2.0279875062729784E+02   2.0686560764051052E+02   1.0315604074831088E+04   7.5603058962149972E-01   1.2205584730208528E+05
   3.4000000000000000E+03   2.1971274652315341E+02   2.2395658282517678E+02   1.1594725246824337E+04   7.4330133711481694E-01   1.3173596243529284E+05
   3.5000000000000000E+03   2.3714304830094014E+02   2.4155483441218146E+02   1.2984094949293893E+04   7.3077743329551126E-01   1.4183152961307761E+05
   3.6000000000000000E+03   2.5503930493474525E+02   2.5964572908903926E+02   1.4375546857623676E+04   7.1848597442680062E-01   1.5233775352407372E+05
   3.7000000000000000E+03   2.7344607893828561E+02   2.7821530892016244E+02   1.5951607620918949E+04   7.0644930411696449E-01   1.6324756145904015E+05
   3.8000000000000000E+03   2.9229691343761931E+02   2.9724986597173807E+02   1.7542105995317088E+04   6.9468506270038788E-01   1.7455183203915297E+05
   3.9000000000000000E+03   3.1156731569174821E+02   3.1673558409901409E+02   1.9094297730948168E+04   6.8320638816734636E-01   1.8623969278679718E+05
   4.0000000000000000E+03   3.3127954509615955E+02   3.3665825879904958E+02   2.0735068082893154E+04   6.7202223907580516E-01   1.9829884367568139E+05
   4.1000000000000000E+03   3.5137836638782375E+02   3.5700309676556060E+02   2.2302076101886083E+04   6.6113780523455623E-01   2.1071585052838403E+05
   4.2000000000000000E+03   3.7185806327935200E+02   3.7775459029853255E+02   2.3822682383437656E+04   6.5055497008938967E-01   2.2347643190537929E+05
   4.3000000000000000E+03   3.9273555214960692E+02   3.9889645704437862E+02   2.5428215981842684E+04   6.4027279509080059E-01   2.3656569755573367E+05
   4.4000000000000000E+03   4.1396907841299054E+02   4.2041163391993729E+02   2.7013724051004076E+04   6.3028799856631135E-01   2.4996836185264206E+05
   4.5000000000000000E+03   4.3550480411225413E+02   4.4228231326672443E+02   2.8419891115085182E+04   6.2059541044407052E-01   2.6366890435669391E+05
   4.6000000000000000E+03   4.5742262480684929E+02   4.6449001028100889E+02   3.0063202364742214E+04   6.1118838819916688E-01   2.7765171003877354E+05
   4.7000000000000000E+03   4.7968036891682533E+02   4.8701565173201328E+02   3.1847694680207591E+04   6.0205918736628961E-01   2.9190117175766133E+05
   4.8000000000000000E+03   5.0216405436406916E+02   5.0983967811518477E+02   3.3355355621851784E+04   5.9319928096854158E-01   3.0640177380001667E+05
   4.9000000000000000E+03   5.2492718035917596E+02   5.3294215227056770E+02   3.4904154921406516E+04   5.8459963072620136E-01   3.2113813786996360E+05
   5.0000000000000000E+03   5.4791887393790341E+02   5.5630286983992914E+02   3.6356034231537356E+04   5.7625090981323934E-01   3.3609508591851179E+05
   5.1000000000000000E+03   5.7111786545342295E+02   5.7990146752462931E+02   3.7705725466737618E+04   5.6814368327615916E-01   3.5125765330935706E+05
   5.2000000000000000E+03   5.9456306801336723E+02   6.0371752670635613E+02   3.9210198759963612E+04   5.6026854967555972E-01   3.6661113618561486E+05
   5.3000000000000000E+03   6.1815982090477326E+02   6.2773067049802967E+02   4.0543723425024276E+04   5.5261625014240234E-01   3.8214108865944855E+05
   5.4000000000000000E+03   6.4194282783469214E+02   6.5192065321400298E+02   4.1942584855793983E+04   5.4517774933815655E-01   3.9783334799201810E+05
   5.5000000000000000E+03   6.6594520339374344E+02   6.7626744160595729E+02   4.3629787424974726E+04   5.3794429342722505E-01   4.1367404551153065E+05
   5.6000000000000000E+03   6.8996646587628743E+02   7.0075128773544691E+02   4.4831050134263729E+04   5.3090744877682239E-01   4.2964961619865632E+05
   5.7000000000000000E+03   7.1402506465727663E+02   7.2535279330084495E+02   4.5721440849488965E+04   5.2405912649269992E-01   4.4574680269149056E+05
   5.8000000000000000E+03   7.3825058370673116E+02   7.5005296591498870E+02   4.6916548721010608E+04   5.1739159441610816E-01   4.6195266812837421E+05
   5.9000000000000000E+03   7.6250293794787422E+02   7.7483326751802394E+02   4.7915397519667909E+04   5.1089748033588722E-01   4.7825459399334685E+05
   6.0000000000000000E+03   7.8698194809038807E+02   7.9967565538792167E+02   4.9578132720920970E+04   5.0456976850547886E-01   4.9464029793044884E+05
   6.1000000000000000E+03   8.1138058387290209E+02   8.2456261628614686E+02   5.0753485962438426E+04   4.9840179101285026E-01   5.1109782813779794E+05
   6.2000000000000000E+03   8.3575890507872407E+02   8.4947719419783436E+02   5.1752672913353381E+04   4.9238721578353423E-01   5.2761556751663669E+05
   6.3000000000000000E+03   8.6008056675737100E+02   8.7440301223711344E+02   5.2508982450165538E+04   4.8652003210687111E-01   5.4418224544776289E+05
   6.4000000000000000E+03   8.8446050231399636E+02   8.9932428918313781E+02   5.3513739100057806E+04   4.8079453488515878E-01   5.6078693243645446E+05
   6.5000000000000000E+03   9.0874098594228315E+02   9.2422585120877477E+02   5.4238890478321744E+04   4.7520530799270444E-01   5.7741904504395218E+05
   6.6000000000000000E+03   9.3301472201938066E+02   9.4909313922894694E+02   5.5074940519725693E+04   4.6974720759617439E-01   5.9406834688796906E+05
   6.7000000000000000E+03   9.5722136769533734E+02   9.7391221239015329E+02   5.5853948497216647E+04   4.6441534551364705E-01   6.1072494748241582E+05
   6.8000000000000000E+03   9.8144987382042007E+02   9.9866974809796091E+02   5.6919364361293454E+04   4.5920507311546155E-01   6.2737930582451401E+05
   6.9000000000000000E+03   1.0054160017829192E+03   1.0233530389927080E+03   5.7361508974010096E+04   4.5411196596036607E-01   6.4402221945225564E+05
   7.0000000000000000E+03   1.0294107853648952E+03   1.0479499873257719E+03   5.8188643812862021E+04   4.4913180893476190E-01   6.6064483877567365E+05
   7.1000000000000000E+03   1.0533368649743002E+03   1.0724490969716353E+03   5.9106135264898854E+04   4.4426058259164797E-01   6.7723864730079437E+05
   7.2000000000000000E+03   1.0769258071291997E+03   1.0968394635136890E+03   5.9316817651613463E+04   4.3949445014745914E-01   6.9379547115286940E+05
   7.3000000000000000E+03   1.1005726673862316E+03   1.1211107626374046E+03   6.0076840007876883E+04   4.3482974548510422E-01   7.1030746603144403E+05
   7.4000000000000000E+03   1.1241133607997558E+03   1.1452532371233083E+03   6.0898864574489642E+04   4.3026296204709930E-01   7.2676711730355211E+05
   7.5000000000000000E+03   1.1473261497500769E+03   1.1692576827046173E+03   6.1168542935137608E+04   4.2579074250270094E-01   7.4316723646135803E+05
   7.6000000000000000E+03   1.1704103002957206E+03   1.1931154329898789E+03   6.1503035944486815E+04   4.2140986926643359E-01   7.5950094827351382E+05
   7.7000000000000000E+03   1.1933367592006246E+03   1.2168183436415775E+03   6.1838844920729520E+04   4.1711725586801812E-01   7.7576169386203610E+05
   7.8000000000000000E+03   1.2159722585436396E+03   1.2403587760416942E+03   6.1847365554682801E+04   4.1290993886409566E-01   7.9194321747081971E+05
   7.9000000000000000E+03   1.2386593973661109E+03   1.2637295805153378E+03   6.2437937182885347E+04   4.0878507067874981E-01   8.0803956401565170E+05
   8.0000000000000000E+03   1.2611799529310852E+03   1.2869240793744900E+03   6.3045170843899279E+04   4.0473991271492837E-01   8.2404506737463828E+05
   8.1000000000000000E+03   1.2832786694804074E+03   1.3099360497547643E+03   6.3059947141571552E+04   4.0077182943336026E-01   8.3995434801150952E+05
   8.2000000000000000E+03   1.3051955493548226E+03   1.3327597065298742E+03   6.3107753532064082E+04   3.9687828247017648E-01   8.5576230513627548E+05
   8.3000000000000000E+03   1.3269638198103023E+03   1.3553896851764250E+03   6.3271708734561988E+04   3.9305682583812102E-01   8.7146410108743608E+05
   8.4000000000000000E+03   1.3485471109106336E+03   1.3778210249415717E+03   6.3471408728371716E+04   3.8930510081817010E-01   8.8705517105857516E+05
   8.5000000000000000E+03   1.3700064991365457E+03   1.4000491520757200E+03   6.3845108530786900E+04   3.8562083201214237E-01   9.0253119207977515E+05
   8.6000000000000000E+03   1.3910929314734242E+03   1.4220698634773314E+03   6.3861435176833445E+04   3.8200182308571234E-01   9.1788809711617557E+05
   8.7000000000000000E+03   1.4117853706502303E+03   1.4438793105865959E+03   6.3515034044197913E+04   3.7844595320802271E-01   9.3312205402910290E+05
   8.8000000000000000E+03   1.4327991512364661E+03   1.4654739836622341E+03   6.4261381744516140E+04   3.7495117368479219E-01   9.4822946139253560E+05
   8.9000000000000000E+03   1.4531480942385253E+03   1.4868506964588885E+03   6.4108232410345561E+04   3.7151550482362794E-01   9.6320694263867685E+05
   9.0000000000000000E+03   1.4733264008672550E+03   1.5080065713241786E+03   6.4065022315069611E+04   3.6813703303153228E-01   9.7805133322972339E+05
   9.1000000000000000E+03   1.4934211028938153E+03   1.5289390247290191E+03   6.4287257997877714E+04   3.6481390814461229E-01   9.9275968454622349E+05
   9.2000000000000000E+03   1.5131295791097627E+03   1.5496457532479328E+03   6.4213047552817479E+04   3.6154434095128735E-01   1.0073292400435418E+06
   9.3000000000000000E+03   1.5326157341081537E+03   1.5701247200251162E+03   6.4155236181269654E+04   3.5832660075419570E-01   1.0217574438280263E+06
   9.4000000000000000E+03   1.5518789009332925E+03   1.5903741416498501E+03   6.4113589863973153E+04   3.5515901335780165E-01   1.0360419223312848E+06
   9.5000000000000000E+03   1.5709188257530366E+03   1.6103924755636658E+03   6.4088217553999413E+04   3.5203995886250211E-01   1.0501804840580232E+06
   9.6000000000000000E+03   1.5899521768745035E+03   1.6301784078785463E+03   6.4433222889805867E+04   3.4896786984573175E-01   1.0641711122511157E+06
   9.7000000000000000E+03   1.6082455903526129E+03   1.6497308416849430E+03   6.3954592685349286E+04   3.4594122950436951E-01   1.0780119500713760E+06
   9.8000000000000000E+03   1.6265093296274752E+03   1.6690488858026213E+03   6.3816452931128595E+04   3.4295856995194313E-01   1.0917013066437370E+06
   9.9000000000000000E+03   1.6445749700597137E+03   1.6881318439953241E+03   6.3738719654206121E+04   3.4001847051583495E-01   1.1052376427276158E+06
   1.0000000000000000E+04   1.6625335006671032E+03   1.7069792045735721E+03   6.3851168124543983E+04   3.3711955636343593E-01   1.1186195652144062E+06
   1.0100000000000000E+04   1.6800396687989924E+03   1.7255906304996508E+03   6.3644335994455105E+04   3.3426049681870040E-01   1.1318458241394516E+06
   1.0200000000000000E+04   1.6975362979643851E+03   1.7439659498337753E+03   6.3761957780443954E+04   3.3144000412375091E-01   1.1449153043339825E+06
   1.0300000000000000E+04   1.7142782097193085E+03   1.7621051466490180E+03   6.3159772505903413E+04   3.2865683192958178E-01   1.1578270252087845E+06
   1.0400000000000000E+04   1.7310237283198478E+03   1.7800083522619625E+03   6.2902120020643117E+04   3.2590977423181289E-01   1.1705801213102103E+06
   1.0500000000000000E+04   1.7476673113807165E+03   1.7976758369422971E+03   6.2824073723475260E+04   3.2319766384204524E-01   1.1831738597396363E+06
   1.0600000000000000E+04   1.7639740566201922E+03   1.8151080018741266E+03   6.2616006047828392E+04   3.2051937149776139E-01   1.1956076082974896E+06
   1.0700000000000000E+04   1.7802224435367677E+03   1.8323053715834271E+03   6.2629181350624865E+04   3.1787380443043256E-01   1.2078808570124006E+06
   1.0800000000000000E+04   1.7960445229831250E+03   1.8492685866095676E+03   6.2403516195534605E+04   3.1525990547541971E-01   1.2199931910031934E+06
   1.0900000000000000E+04   1.8115213726304066E+03   1.8659983965638223E+03   6.2049938352010067E+04   3.1267665191097732E-01   1.2319443009101413E+06
   1.1000000000000000E+04   1.8268577830679051E+03   1.8824956534982953E+03   6.1811349168863788E+04   3.1012305435530746E-01   1.2437339724136088E+06
   1.1100000000000000E+04   1.8419201507206380E+03   1.8987613055400982E+03   6.1528776485828457E+04   3.0759815589581185E-01   1.2553620841636455E+06
   1.1200000000000000E+04   1.8572964746877881E+03   1.9147963908551058E+03   6.1849561243386204E+04   3.0510103104419506E-01   1.2668285973898384E+06
   1.1300000000000000E+04   1.8715800829730233E+03   1.9306020318778299E+03   6.1219196892963446E+04   3.0263078478831806E-01   1.2781335639039832E+06
   1.1400000000000000E+04   1.8858449627269308E+03   1.9461794297960892E+03   6.0830779694080527E+04   3.0018655174080000E-01   1.2892771086694442E+06
   1.1500000000000000E+04   1.9000000273775381E+03   1.9615298593220934E+03   6.0570729167148740E+04   2.9776749515217227E-01   1.3002594357097396E+06
   1.1600000000000000E+04   1.9141031569637200E+03   1.9766546636744554E+03   6.0486487551178121E+04   2.9537280613688000E-01   1.3110808232251927E+06
   1.1700000000000000E+04   1.9277757599731585E+03   1.9915552498179131E+03   6.0196027666439557E+04   2.9300170280253457E-01   1.3217416149770976E+06
   1.1800000000000000E+04   1.9412823233836320E+03   2.0062330839218498E+03   5.9963344387834150E+04   2.9065342943721750E-01   1.3322422243649196E+06
   1.1900000000000000E+04   1.9544487918188452E+03   2.0206896870280527E+03   5.9620790223013079E+04   2.8832725575483126E-01   1.3425831196306797E+06
   1.2000000000000000E+04   1.9675233116882141E+03   2.0349266309496306E+03   5.9400124917296380E+04   2.8602247602435260E-01   1.3527648385152647E+06
   1.2100000000000000E+04   1.9801002707299533E+03   2.0489455343189657E+03   5.8930961924059506E+04   2.8373840848933507E-01   1.3627879672208990E+06
   1.2200000000000000E+04   1.9926601143282685E+03   2.0627480588872372E+03   5.8645688765981620E+04   2.8147439445845968E-01   1.3726531502791995E+06
   1.2300000000000000E+04   2.0048319031523761E+03   2.0763359059458544E+03   5.8216383744613529E+04   2.7922979774438939E-01   1.3823610798789638E+06
   1.2400000000000000E+04   2.0171053049344885E+03   2.0897108129621506E+03   5.8055743718492588E+04   2.7700400388976937E-01   1.3919124996338061E+06
   1.2500000000000000E+04   2.0289643203457265E+03   2.1028745503528717E+03   5.7727562644799858E+04   2.7479641956737999E-01   1.4013081952916682E+06
   1.2600000000000000E+04   2.0409218971378516E+03   2.1158289184394398E+03   5.7648021443204852E+04   2.7260647186418824E-01   1.4105489974298070E+06
   1.2700000000000000E+04   2.0520964706644090E+03   2.1285757445338204E+03   5.7114072243392009E+04   2.7043360770085023E-01   1.4196357762908076E+06
   1.2800000000000000E+04   2.0633461146131599E+03   2.1411168801888989E+03   5.6806245418375984E+04   2.6827729315446291E-01   1.4285694434496139E+06
   1.2900000000000000E+04   2.0742295254009191E+03   2.1534541985567253E+03   5.6380898807375903E+04   2.6613701297481557E-01   1.4373509426847647E+06
   1.3000000000000000E+04   2.0852723494722204E+03   2.1655895919219488E+03   5.6225088892540130E+04   2.6401226986844234E-01   1.4459812559421505E+06
   1.3100000000000000E+04   2.0955939146956557E+03   2.1775249693213118E+03   5.5695707758882520E+04   2.6190258403422323E-01   1.4544613943156996E+06
   1.3200000000000000E+04   2.1062981188662116E+03   2.1892622543101670E+03   5.5581112769786203E+04   2.5980749256353602E-01   1.4627924000950917E+06
   1.3300000000000000E+04   2.1166393299336100E+03   2.2008033828276507E+03   5.5347940568030543E+04   2.5772654895650782E-01   1.4709753419594909E+06
