#Te   kappa_tot   kappa_e_ph  kappa_e_e mu Ce
#[K]  [W/(K*m)]   [W/(K*m)]   [W/(K*m)]   [eV]  [J/(m^3*K)]
   3.0000000000000000E+02   1.6564221421169655E+01   1.6658516174510467E+01   2.9263065089677580E+03   4.2688332442511303E+00   1.6381631973400265E+04
   4.0000000000000000E+02   2.3360838912890642E+01   2.3537418572521755E+01   3.1139138270322233E+03   4.2519511210893786E+00   2.2973469571808684E+04
   5.0000000000000000E+02   3.0285887385746147E+01   3.0568638803348417E+01   3.2742483138883358E+03   4.2348878651372699E+00   3.0832257232125947E+04
   6.0000000000000000E+02   3.6964387275485230E+01   3.7372813143616405E+01   3.3824085260223633E+03   4.2179309793274831E+00   3.8870552728702176E+04
   7.0000000000000000E+02   4.3318934744583565E+01   4.3871655036943288E+01   3.4383998343331377E+03   4.2020775614058437E+00   4.6377368684322726E+04
   8.0000000000000000E+02   4.9363901079587187E+01   5.0081872529664416E+01   3.4433633832778937E+03   4.1887308863549668E+00   5.3058255674161694E+04
   9.0000000000000000E+02   5.5210275715719249E+01   5.6118837543853459E+01   3.4101548157756279E+03   4.1787745574576869E+00   5.9117661961054990E+04
   1.0000000000000000E+03   6.0978206238999249E+01   6.2108051151813349E+01   3.3519977027685427E+03   4.1721342440352212E+00   6.4929028463991126E+04
   1.1000000000000000E+03   6.6725734561677328E+01   6.8111299759035546E+01   3.2800885277990174E+03   4.1681825721686243E+00   7.0714818904070155E+04
   1.2000000000000000E+03   7.2460996908427873E+01   7.4138556972380840E+01   3.2023614909573730E+03   4.1662248927854355E+00   7.6542480268283602E+04
   1.3000000000000000E+03   7.8171517003830985E+01   8.0177939015263604E+01   3.1237850698162001E+03   4.1656983860352526E+00   8.2412616986282766E+04
   1.4000000000000000E+03   8.3840872975272703E+01   8.6212949814128947E+01   3.0471900639083938E+03   4.1661925073675024E+00   8.8309538763397402E+04
   1.5000000000000000E+03   8.9454848688105415E+01   9.2228971091172241E+01   2.9740319477250277E+03   4.1674169329082043E+00   9.4218272971681770E+04
   1.6000000000000000E+03   9.5002835440497364E+01   9.8214843341983595E+01   2.9049394914362647E+03   4.1691665299090479E+00   1.0012816426251369E+05
   1.7000000000000000E+03   1.0047761072043521E+02   1.0416273717664548E+02   2.8400715910229856E+03   4.1712946625635068E+00   1.0603275455062682E+05
   1.8000000000000000E+03   1.0587360869701705E+02   1.1006758709164720E+02   2.7785676389955565E+03   4.1736947633235140E+00   1.1192913240880241E+05
   1.9000000000000000E+03   1.1120370377006229E+02   1.1592650947752975E+02   2.7296183704218979E+03   4.1762879834233297E+00   1.1781752477204663E+05
   2.0000000000000000E+03   1.1644172241509590E+02   1.2173831566902750E+02   2.6763276847607590E+03   4.1790149562977774E+00   1.2370118407746467E+05
   2.1000000000000000E+03   1.2152102819801428E+02   1.2750313081809696E+02   2.5901112935549904E+03   4.1818302759885944E+00   1.2958646170458285E+05
   2.2000000000000000E+03   1.2650848501357878E+02   1.3322210229808667E+02   2.5103793704395480E+03   4.1846987632427606E+00   1.3548295497006294E+05
   2.3000000000000000E+03   1.3140634749247926E+02   1.3889717727536646E+02   2.4365752889576929E+03   4.1875929122553410E+00   1.4140364262684918E+05
   2.4000000000000000E+03   1.3621765957574391E+02   1.4453093155597134E+02   2.3682209940541170E+03   4.1904911240693403E+00   1.4736495670363729E+05
   2.5000000000000000E+03   1.4094614260424908E+02   1.5012643567927736E+02   2.3049092048571529E+03   4.1933764671048648E+00   1.5338676192526417E+05
   2.6000000000000000E+03   1.4559611156970743E+02   1.5568714793783781E+02   2.2462948833199707E+03   4.1962357935294818E+00   1.5949223215300284E+05
   2.7000000000000000E+03   1.5017241068732272E+02   1.6121682706720685E+02   2.1920868184705009E+03   4.1990590970304389E+00   1.6570762628129855E+05
   2.8000000000000000E+03   1.5465009017587192E+02   1.6671945966823529E+02   2.1362490797948508E+03   4.2018390359429967E+00   1.7206197372217869E+05
   2.9000000000000000E+03   1.5909528149092549E+02   1.7219919904603475E+02   2.0906786027556304E+03   4.2045705687583741E+00   1.7858668267394928E+05
   3.0000000000000000E+03   1.6348193815735868E+02   1.7766031321030934E+02   2.0484894939508877E+03   4.2072506681490349E+00   1.8531508910520683E+05
   3.1000000000000000E+03   1.6776817448611408E+02   1.8310714042441106E+02   2.0027132733685885E+03   4.2098780883825517E+00   1.9228196146849528E+05
   3.2000000000000000E+03   1.7200649931496943E+02   1.8854405106409936E+02   1.9610401032852312E+03   4.2124531717057909E+00   1.9952297853632388E+05
   3.3000000000000000E+03   1.7620411397552536E+02   1.9397541476223338E+02   1.9232844292849190E+03   4.2149776810113853E+00   2.0707419361779888E+05
   3.4000000000000000E+03   1.8036846546001956E+02   1.9940557195481151E+02   1.8892827556281393E+03   4.2174546520306180E+00   2.1497149808933132E+05
   3.5000000000000000E+03   1.8450718275825213E+02   2.0483880905413056E+02   1.8588887592230956E+03   4.2198882596973020E+00   2.2325009575593288E+05
   3.6000000000000000E+03   1.8862802301429957E+02   2.1027933658064146E+02   1.8319708602634444E+03   4.2222836955518872E+00   2.3194399717465564E+05
   3.7000000000000000E+03   1.9273903588316429E+02   2.1573126970241799E+02   1.8084296314643384E+03   4.2246470525606536E+00   2.4108554055436846E+05
   3.8000000000000000E+03   1.9689519663447436E+02   2.2119861074221097E+02   1.7920504404974017E+03   4.2269852167732331E+00   2.5070494844752506E+05
   3.9000000000000000E+03   2.0101602834327147E+02   2.2668523332916885E+02   1.7751763372855517E+03   4.2293057643354768E+00   2.6082992559876438E+05
   4.0000000000000000E+03   2.0514505644244036E+02   2.3219486798741804E+02   1.7609597471583127E+03   4.2316168618802870E+00   2.7148529769786377E+05
   4.1000000000000000E+03   2.0926484001602864E+02   2.3773108903185309E+02   1.7476401012803472E+03   4.2339271714499054E+00   2.8269270556657779E+05
   4.2000000000000000E+03   2.1340923777770709E+02   2.4329730273564221E+02   1.7372115593050626E+03   4.2362457580546433E+00   2.9447034256063827E+05
   4.3000000000000000E+03   2.1758463523746539E+02   2.4889673677614900E+02   1.7295583184133545E+03   4.2385820006919994E+00   3.0683275643622590E+05
   4.4000000000000000E+03   2.2179709429536865E+02   2.5453243102100166E+02   1.7245753137522631E+03   4.2409455056726850E+00   3.1979069904428715E+05
   4.5000000000000000E+03   2.2605177536762849E+02   2.6020722971483099E+02   1.7221350839781044E+03   4.2433460235718021E+00   3.3335103575206752E+05
   4.6000000000000000E+03   2.3035340403714272E+02   2.6592377515409129E+02   1.7221199806927291E+03   4.2457933688988492E+00   3.4751671548058273E+05
   4.7000000000000000E+03   2.3470641788624650E+02   2.7168450291574834E+02   1.7244293863158937E+03   4.2482973431457713E+00   3.6228678909930983E+05
   4.8000000000000000E+03   2.3911436890322028E+02   2.7749163869003888E+02   1.7289462859100770E+03   4.2508676615424790E+00   3.7765648674458225E+05
   4.9000000000000000E+03   2.4358015600848407E+02   2.8334719674103650E+02   1.7355516808735513E+03   4.2535138839318840E+00   3.9361734989319998E+05
   5.0000000000000000E+03   2.4810613980057775E+02   2.8925298000309368E+02   1.7441300459808624E+03   4.2562453495172567E+00   4.1015739581055474E+05
   5.1000000000000000E+03   2.5262003181810161E+02   2.9521058175760908E+02   1.7510012587902718E+03   4.2590711169649005E+00   4.2726134864615853E+05
   5.2000000000000000E+03   2.5720426614449798E+02   3.0122138884425692E+02   1.7601201876182117E+03   4.2619999091206600E+00   4.4491088486397127E+05
   5.3000000000000000E+03   2.6190502142107084E+02   3.0728658629694564E+02   1.7734051301808031E+03   4.2650400634113153E+00   4.6308492944931565E+05
   5.4000000000000000E+03   2.6665654422779340E+02   3.1340716329772090E+02   1.7876142126845966E+03   4.2681994876012963E+00   4.8175995810197952E+05
   5.5000000000000000E+03   2.7147088426877019E+02   3.1958392028317672E+02   1.8032062955115985E+03   4.2714856220170185E+00   5.0091033311176213E+05
   5.6000000000000000E+03   2.7634679892655225E+02   3.2581747707580240E+02   1.8200400761150295E+03   4.2749054072089061E+00   5.2050865224611480E+05
   5.7000000000000000E+03   2.8128373671220578E+02   3.3210828185117299E+02   1.8380225195669425E+03   4.2784652579162570E+00   5.4052608320439141E+05
   5.8000000000000000E+03   2.8628072636637017E+02   3.3845662075394495E+02   1.8570569488123790E+03   4.2821710435820544E+00   5.6093272036263463E+05
   5.9000000000000000E+03   2.9133608495746023E+02   3.4486262804307302E+02   1.8770300137169693E+03   4.2860280736876284E+00   5.8169792172202468E+05
   6.0000000000000000E+03   2.9644822664939079E+02   3.5132629651099137E+02   1.8978447645597246E+03   4.2900410902139727E+00   6.0279062743607385E+05
   6.1000000000000000E+03   3.0159759013605986E+02   3.5784748810967011E+02   1.9186868587877716E+03   4.2942142642637791E+00   6.2417967742286331E+05
   6.2000000000000000E+03   3.0679919804666218E+02   3.6442594455017826E+02   1.9401683127915333E+03   4.2985511988214808E+00   6.4583408124879980E+05
   6.3000000000000000E+03   3.1204952770554917E+02   3.7106129779778468E+02   1.9621425106657150E+03   4.3030549357152088E+00   6.6772330842898577E+05
   6.4000000000000000E+03   3.1734909871523456E+02   3.7775308031673023E+02   1.9846307544145311E+03   4.3077279670689226E+00   6.8981750532153179E+05
   6.5000000000000000E+03   3.2269404721106480E+02   3.8450073498870319E+02   2.0074866133503499E+03   4.3125722502149841E+00   7.1208767701630306E+05
   6.6000000000000000E+03   3.2808160997956008E+02   3.9130362457665990E+02   2.0306142403098470E+03   4.3175892265613856E+00   7.3450592812383955E+05
   6.7000000000000000E+03   3.3351733928505183E+02   3.9816104072793945E+02   2.0542389737362423E+03   4.3227798426423147E+00   7.5704553126298066E+05
   6.8000000000000000E+03   3.3898533570590780E+02   4.0507221241170066E+02   2.0777731790959151E+03   4.3281445740523772E+00   7.7968112067943451E+05
   6.9000000000000000E+03   3.4449289276095800E+02   4.1203631381003856E+02   2.1015160242451821E+03   4.3336834507402333E+00   8.0238873827379302E+05
   7.0000000000000000E+03   3.5003308504796928E+02   4.1905247160766385E+02   2.1252322969712627E+03   4.3393960839500325E+00   8.2514591610298527E+05
   7.1000000000000000E+03   3.5559143933727296E+02   4.2611977169265339E+02   2.1484208953467664E+03   4.3452816940279426E+00   8.4793169172950822E+05
   7.2000000000000000E+03   3.6117965215542301E+02   4.3323726525336906E+02   2.1715468780832925E+03   4.3513391390525777E+00   8.7072671266150125E+05
   7.3000000000000000E+03   3.6679858667556834E+02   4.4040397434057542E+02   2.1946702609546114E+03   4.3575669430122597E+00   8.9351310391573550E+05
   7.4000000000000000E+03   3.7243961244027616E+02   4.4761889683248728E+02   2.2175125741753859E+03   4.3639633246414524E+00   9.1627458680745261E+05
   7.5000000000000000E+03   3.7810474679940108E+02   4.5488101090607114E+02   2.2401802360887918E+03   4.3705262253508375E+00   9.3899638023045368E+05
   7.6000000000000000E+03   3.8379034627422237E+02   4.6218927902482852E+02   2.2625790583839403E+03   4.3772533364159445E+00   9.6166514450755063E+05
   7.7000000000000000E+03   3.8949077502145082E+02   4.6954265144242459E+02   2.2845502115928084E+03   4.3841421257537938E+00   9.8426896988842555E+05
   7.8000000000000000E+03   3.9522040620124284E+02   4.7694006929421744E+02   2.3066229201857118E+03   4.3911898635460975E+00   1.0067973162723423E+06
   7.9000000000000000E+03   4.0096444127978191E+02   4.8438046735235122E+02   2.3283216979170220E+03   4.3983936460498896E+00   1.0292408913195345E+06
   8.0000000000000000E+03   4.0672331299856802E+02   4.9186277634347579E+02   2.3496983663693400E+03   4.4057504194905448E+00   1.0515916731364834E+06
   8.1000000000000000E+03   4.1246844945287370E+02   4.9938592505869133E+02   2.3698449218854257E+03   4.4132570011535401E+00   1.0738427172623684E+06
   8.2000000000000000E+03   4.1819233853432308E+02   5.0694884209727729E+02   2.3885812676651503E+03   4.4209101003938240E+00   1.0959882217565028E+06
   8.3000000000000000E+03   4.2393762249690366E+02   5.1455045743792846E+02   2.4073554008425403E+03   4.4287063372559059E+00   1.1180233244540202E+06
   8.4000000000000000E+03   4.2973308058163491E+02   5.2218970374936623E+02   2.4271077868929360E+03   4.4366422603524152E+00   1.1399440866456670E+06
   8.5000000000000000E+03   4.3564727433518277E+02   5.2986551752143032E+02   2.4499975871563020E+03   4.4447143632596493E+00   1.1617474184018509E+06
   8.6000000000000000E+03   4.4144496644324869E+02   5.3757684005136821E+02   2.4685942467379541E+03   4.4529190993477350E+00   1.1834310236295371E+06
   8.7000000000000000E+03   4.4729083024812320E+02   5.4532261827675745E+02   2.4881501356564540E+03   4.4612528954985002E+00   1.2049932891114529E+06
   8.8000000000000000E+03   4.5311158606990887E+02   5.5310180549441770E+02   2.5064135051220474E+03   4.4697121645051316E+00   1.2264332333996580E+06
   8.9000000000000000E+03   4.5885884695721307E+02   5.6091336197819135E+02   2.5219860039244695E+03   4.4782933162771892E+00   1.2477504448021224E+06
   9.0000000000000000E+03   4.6470399843481016E+02   5.6875625549276810E+02   2.5401016137024390E+03   4.4869927681392845E+00   1.2689450442487968E+06
   9.1000000000000000E+03   4.7054297855650236E+02   5.7662946177897345E+02   2.5576203134183875E+03   4.4958069535232390E+00   1.2900175967943582E+06
   9.2000000000000000E+03   4.7637900271315812E+02   5.8453196492468828E+02   2.5746752452342857E+03   4.5047323303306035E+00   1.3109690845367406E+06
   9.3000000000000000E+03   4.8220422339919043E+02   5.9246275773364641E+02   2.5910742031024597E+03   4.5137653877710280E+00   1.3318008252635286E+06
   9.4000000000000000E+03   4.8801538995532337E+02   6.0042084202934313E+02   2.6067651164046865E+03   4.5229026526238636E+00   1.3525144680925226E+06
   9.5000000000000000E+03   4.9382564854008058E+02   6.0840522891947592E+02   2.6221609971995067E+03   4.5321406947582901E+00   1.3731119103403932E+06
   9.6000000000000000E+03   4.9963510553070046E+02   6.1641493905321374E+02   2.6372921919363644E+03   4.5414761316647265E+00   1.3935953062420646E+06
   9.7000000000000000E+03   5.0543842218664321E+02   6.2444900284014307E+02   2.6520374658995747E+03   4.5509056324919532E+00   1.4139669680723636E+06
   9.8000000000000000E+03   5.1123972863434335E+02   6.3250646066056413E+02   2.6665386780412064E+03   4.5604259213426799E+00   1.4342294346533758E+06
   9.9000000000000000E+03   5.1703675188236855E+02   6.4058636304717390E+02   2.6807586792664783E+03   4.5700337801571926E+00   1.4543853069321839E+06
   1.0000000000000000E+04   5.2282765191032274E+02   6.4868777088046363E+02   2.6946733154831581E+03   4.5797260507730995E+00   1.4744373265181568E+06
   1.0100000000000000E+04   5.2860385223055664E+02   6.5680975552624727E+02   2.7080825299676717E+03   4.5894996370674690E+00   1.4943883416407872E+06
   1.0200000000000000E+04   5.3437367302744235E+02   6.6495139903430152E+02   2.7212337996147257E+03   4.5993515058630914E+00   1.5142411663130685E+06
   1.0300000000000000E+04   5.4013656379907297E+02   6.7311179423221188E+02   2.7341354506772041E+03   4.6092786885763068E+00   1.5339987880635466E+06
   1.0400000000000000E+04   5.4589207917529905E+02   6.8129004493253319E+02   2.7467978345884608E+03   4.6192782811345872E+00   1.5536641417152619E+06
   1.0500000000000000E+04   5.5163990736656467E+02   6.8948526602129482E+02   2.7592339124836144E+03   4.6293474448828391E+00   1.5732401472893255E+06
   1.0600000000000000E+04   5.5738061880828968E+02   6.9769658358811421E+02   2.7714776013619285E+03   4.6394834066657911E+00   1.5927297741273798E+06
   1.0700000000000000E+04   5.6311218147531895E+02   7.0592313507957681E+02   2.7834973894936929E+03   4.6496834583336515E+00   1.6121359660850980E+06
   1.0800000000000000E+04   5.6883272173323030E+02   7.1416406938124373E+02   2.7952668018610070E+03   4.6599449567833044E+00   1.6314615913611648E+06
   1.0900000000000000E+04   5.7454804137459564E+02   7.2241854693448113E+02   2.8069435457890704E+03   4.6702653233403888E+00   1.6507095168016227E+06
   1.1000000000000000E+04   5.8025367833357382E+02   7.3068573983607928E+02   2.8184356712994481E+03   4.6806420431001792E+00   1.6698825657014186E+06
   1.1100000000000000E+04   5.8594040780437467E+02   7.3896483194012387E+02   2.8295440902687478E+03   4.6910726640213003E+00   1.6889835060380499E+06
   1.1200000000000000E+04   5.9161753008808932E+02   7.4725501892404350E+02   2.8405056644658675E+03   4.7015547962254125E+00   1.7080149727562969E+06
   1.1300000000000000E+04   5.9728434572709136E+02   7.5555550835954102E+02   2.8513183953733337E+03   4.7120861110497358E+00   1.7269796740109767E+06
   1.1400000000000000E+04   6.0294174750055572E+02   7.6386551981060052E+02   2.8620160014809403E+03   4.7226643396052159E+00   1.7458800840056986E+06
   1.1500000000000000E+04   6.0839810806598496E+02   7.7218428484538777E+02   2.8683462012241048E+03   4.7332872721586172E+00   1.7647187399021522E+06
   1.1600000000000000E+04   6.1391585079305969E+02   7.8051104710907600E+02   2.8762420173893306E+03   4.7439527566495050E+00   1.7834980333872794E+06
   1.1700000000000000E+04   6.1953592236465124E+02   7.8884506236182688E+02   2.8865414668179642E+03   4.7546586974543859E+00   1.8022202187598858E+06
   1.1800000000000000E+04   6.2522163973021236E+02   7.9718559847954282E+02   2.8983845840466306E+03   4.7654030544392469E+00   1.8208876097302656E+06
   1.1900000000000000E+04   6.3081942922040048E+02   8.0553193549891773E+02   2.9084649209952609E+03   4.7761838413529425E+00   1.8395022866236093E+06
   1.2000000000000000E+04   6.3640707929055293E+02   8.1388336559810762E+02   2.9184808086747130E+03   4.7869991248385171E+00   1.8580663705905166E+06
   1.2100000000000000E+04   6.4197574411313451E+02   8.2223919310490157E+02   2.9282565089310519E+03   4.7978470229913963E+00   1.8765817793766633E+06
   1.2200000000000000E+04   6.4753111968447627E+02   8.3059873447320001E+02   2.9379228497768622E+03   4.8087257041647282E+00   1.8950503960860863E+06
   1.2300000000000000E+04   6.5307259056221142E+02   8.3896131824941608E+02   2.9474764194017766E+03   4.8196333857747229E+00   1.9134740133488143E+06
   1.2400000000000000E+04   6.5860444694447051E+02   8.4732628504277420E+02   2.9570126328010019E+03   4.8305683329412492E+00   1.9318543338926064E+06
   1.2500000000000000E+04   6.6412050830035309E+02   8.5569298747569496E+02   2.9664138828170067E+03   4.8415288572519648E+00   1.9501929301214395E+06
   1.2600000000000000E+04   6.6962719692318342E+02   8.6406079010497751E+02   2.9758160376547744E+03   4.8525133157736429E+00   1.9684913896107341E+06
   1.2700000000000000E+04   6.7512006439472430E+02   8.7242906937155681E+02   2.9851367886788175E+03   4.8635201096103682E+00   1.9867510900632921E+06
   1.2800000000000000E+04   6.8060080757088929E+02   8.8079721351470641E+02   2.9944158687470795E+03   4.8745476827912544E+00   2.0049733654671893E+06
   1.2900000000000000E+04   6.8606741069905513E+02   8.8916462247191248E+02   3.0036201132429051E+03   4.8855945212405922E+00   2.0231594896761975E+06
   1.3000000000000000E+04   6.9152780342160577E+02   8.9753070778458186E+02   3.0129062538074631E+03   4.8966591515831803E+00   2.0413106142136690E+06
   1.3100000000000000E+04   6.9696041817023911E+02   9.0589489248018947E+02   3.0218703024788838E+03   4.9077401401556662E+00   2.0594278359116006E+06
   1.3200000000000000E+04   7.0238202822544520E+02   9.1425661097039824E+02   3.0308374152878732E+03   4.9188360917294869E+00   2.0775121335507978E+06
   1.3300000000000000E+04   7.0778588862470906E+02   9.2261530889763958E+02   3.0396865356581648E+03   4.9299456488105831E+00   2.0955644146320445E+06
