#Te   kappa_tot   kappa_e_ph  kappa_e_e mu Ce
#[K]  [W/(K*m)]   [W/(K*m)]   [W/(K*m)]   [eV]  [J/(m^3*K)]
   3.0000000000000000E+02   1.2877702712076777E+02   1.3458236958918084E+02   2.9853738264128101E+03  -3.6788305094611955E+00   3.1619357806116081E+04
   4.0000000000000000E+02   1.7953435491447303E+02   1.9067190699675157E+02   3.0735800443476742E+03  -3.6861967224740790E+00   4.1672255757329091E+04
   5.0000000000000000E+02   2.3000728526468330E+02   2.4836021455345198E+02   3.1125635487601426E+03  -3.6926700456149830E+00   5.2105764163531654E+04
   6.0000000000000000E+02   2.7739906197216868E+02   3.0448705546837306E+02   3.1181498763069944E+03  -3.6974832999861849E+00   6.2731448734576756E+04
   7.0000000000000000E+02   3.2099843064455786E+02   3.5822103541170094E+02   3.0892085846857904E+03  -3.7002035859691920E+00   7.3371858440358701E+04
   8.0000000000000000E+02   3.6139034694324260E+02   4.1005483297842983E+02   3.0451335343124397E+03  -3.7008451416394084E+00   8.3953131097618258E+04
   9.0000000000000000E+02   3.9911052361156464E+02   4.6064815677862669E+02   2.9875950307270705E+03  -3.6996744005135800E+00   9.4474562810600328E+04
   1.0000000000000000E+03   4.3447449616163158E+02   5.1046477537312529E+02   2.9185828554628320E+03  -3.6970152497685183E+00   1.0496187478726423E+05
   1.1000000000000000E+03   4.6817200772419301E+02   5.5978895360696708E+02   2.8605790750472402E+03  -3.6931591553803726E+00   1.1544329174048026E+05
   1.2000000000000000E+03   5.0091345130444267E+02   6.0879491604504142E+02   2.8267465895645887E+03  -3.6883443152950397E+00   1.2594129340465137E+05
   1.3000000000000000E+03   5.3159283071372420E+02   6.5759351643484206E+02   2.7743658445979449E+03  -3.6827613890154032E+00   1.3647075996887265E+05
   1.4000000000000000E+03   5.6212603019009498E+02   7.0625808967706257E+02   2.7544604417152891E+03  -3.6765652515859442E+00   1.4703937564637503E+05
   1.5000000000000000E+03   5.9070284035946304E+02   7.5483899393397826E+02   2.7165589543832907E+03  -3.6698856687579720E+00   1.5764878635313286E+05
   1.6000000000000000E+03   6.1819313925323024E+02   8.0337240260606154E+02   2.6819380235365734E+03  -3.6628351994237316E+00   1.6829596812463723E+05
   1.7000000000000000E+03   6.4471545494061957E+02   8.5188591250736351E+02   2.6510730346905116E+03  -3.6555143976210904E+00   1.7897459926028212E+05
   1.8000000000000000E+03   6.7038390320564031E+02   9.0040212310667766E+02   2.6242055520758231E+03  -3.6480148404913986E+00   1.8967634530410613E+05
   1.9000000000000000E+03   6.9497764698186188E+02   9.4894077553881505E+02   2.5968046269410033E+03  -3.6404205553202322E+00   2.0039200375388472E+05
   2.0000000000000000E+03   7.1867741425818440E+02   9.9751984283096408E+02   2.5709680732101115E+03  -3.6328083627889844E+00   2.1111246719997161E+05
   2.1000000000000000E+03   7.3793936673834332E+02   1.0461559021317325E+03   2.5047313666780938E+03  -3.6252475796927195E+00   2.2182947197487394E+05
   2.2000000000000000E+03   7.5661602838134888E+02   1.0948640867509371E+03   2.4490656973105838E+03  -3.6177994476335953E+00   2.3253611428095456E+05
   2.3000000000000000E+03   7.7420953270769519E+02   1.1436578661672863E+03   2.3966296284286786E+03  -3.6105165721586006E+00   2.4322713369035034E+05
   2.4000000000000000E+03   7.9155766723904571E+02   1.1925488300771308E+03   2.3540946970586228E+03  -3.6034425694344572E+00   2.5389898698603699E+05
   2.5000000000000000E+03   8.0725168482074423E+02   1.2415465721633348E+03   2.3077420236164576E+03  -3.5966120292083841E+00   2.6454975388579402E+05
   2.6000000000000000E+03   8.2204012082929796E+02   1.2906586993374233E+03   2.2640443247691769E+03  -3.5900508230804569E+00   2.7517892515604105E+05
   2.7000000000000000E+03   8.3557493767241033E+02   1.3398909452663688E+03   2.2199955508455400E+03  -3.5837767248387680E+00   2.8578712725201459E+05
   2.8000000000000000E+03   8.4813964186398209E+02   1.3892473456069599E+03   2.1775253577303483E+03  -3.5778002692115378E+00   2.9637582753852790E+05
   2.9000000000000000E+03   8.5953589407344941E+02   1.4387304316245470E+03   2.1351037824109080E+03  -3.5721257585495678E+00   3.0694705613761517E+05
   3.0000000000000000E+03   8.7142437880808143E+02   1.4883414098482378E+03   2.1023523800997514E+03  -3.5667523277970798E+00   3.1750316456413025E+05
   3.1000000000000000E+03   8.7993064780266809E+02   1.5380803103268652E+03   2.0563772663010195E+03  -3.5616749922716759E+00   3.2804663149041618E+05
   3.2000000000000000E+03   8.8997578840825520E+02   1.5879460991271112E+03   2.0247760682899841E+03  -3.5568856221073948E+00   3.3857991594613396E+05
   3.3000000000000000E+03   8.9874376979367264E+02   1.6379367597754385E+03   1.9914764859993106E+03  -3.5523738084229128E+00   3.4910535556249879E+05
   3.4000000000000000E+03   9.0780337314329245E+02   1.6880493526603411E+03   1.9640176772534396E+03  -3.5481276035810319E+00   3.5962509966658871E+05
   3.5000000000000000E+03   9.1585936627959734E+02   1.7382800624977558E+03   1.9357733624365742E+03  -3.5441341328408371E+00   3.7014107304614090E+05
   3.6000000000000000E+03   9.2289901178091566E+02   1.7886242424782604E+03   1.9067476461335373E+03  -3.5403800835105179E+00   3.8065495953862631E+05
   3.7000000000000000E+03   9.2954951207870022E+02   1.8390764614760280E+03   1.8795623687381935E+03  -3.5368520841566631E+00   3.9116820204724552E+05
   3.8000000000000000E+03   9.3583358136323591E+02   1.8896305580575774E+03   1.8540420821307935E+03  -3.5335369887743382E+00   4.0168201170364761E+05
   3.9000000000000000E+03   9.4184973804622916E+02   1.9402797028133218E+03   1.8303256055195009E+03  -3.5304220816256198E+00   4.1219738351297338E+05
   4.0000000000000000E+03   9.4733484352591370E+02   1.9910164687968784E+03   1.8072170949982151E+03  -3.5274952176302641E+00   4.2271511503712100E+05
   4.1000000000000000E+03   9.5255820706750058E+02   2.0418329087051870E+03   1.7855594109763554E+03  -3.5247449116986647E+00   4.3323582767858257E+05
   4.2000000000000000E+03   9.5769667470775016E+02   2.0927206367745816E+03   1.7657702937669728E+03  -3.5221603885329440E+00   4.4375998556476668E+05
   4.3000000000000000E+03   9.6216114709775366E+02   2.1436709131211901E+03   1.7456959934496724E+03  -3.5197316025679930E+00   4.5428791660926695E+05
   4.4000000000000000E+03   9.6416257939318143E+02   2.1946747282670622E+03   1.7196280823976474E+03  -3.5174492358908429E+00   4.6481982979867130E+05
   4.5000000000000000E+03   9.6911545341655835E+02   2.2457228857877217E+03   1.7048034482031353E+03  -3.5153046803493559E+00   4.7535583136398671E+05
   4.6000000000000000E+03   9.7221829396128919E+02   2.2968060813901307E+03   1.6858051321335968E+03  -3.5132900089384846E+00   4.8589594057162327E+05
   4.7000000000000000E+03   9.7945147483274434E+02   2.3479149769772675E+03   1.6804750608097740E+03  -3.5113979400382465E+00   4.9644010113501531E+05
   4.8000000000000000E+03   9.8126752425150357E+02   2.3990402687137066E+03   1.6604214704052094E+03  -3.5096217975419504E+00   5.0698819353514328E+05
   4.9000000000000000E+03   9.8549729682775910E+02   2.4501727483806508E+03   1.6485827066536156E+03  -3.5079554689655978E+00   5.1754004413602757E+05
   5.0000000000000000E+03   9.8903818851053779E+02   2.5013033575904028E+03   1.6358801302100794E+03  -3.5063933630216839E+00   5.2809543243371765E+05
   5.1000000000000000E+03   9.9255979452490214E+02   2.5524232347641710E+03   1.6241374828616447E+03  -3.5049303679654957E+00   5.3865409923434653E+05
   5.2000000000000000E+03   9.9347935476483690E+02   2.6035237548344512E+03   1.6065066900987451E+03  -3.5035618111980384E+00   5.4921574981054687E+05
   5.3000000000000000E+03   9.9726818678281359E+02   2.6545965619919234E+03   1.5973567698577258E+03  -3.5022834209804756E+00   5.5978006037693121E+05
   5.4000000000000000E+03   9.9867738649787589E+02   2.7056335957057304E+03   1.5829668468379687E+03  -3.5010912902395073E+00   5.7034667992311611E+05
   5.5000000000000000E+03   1.0015102586713857E+03   2.7566271105288724E+03   1.5729951698683242E+03  -3.4999818429065543E+00   5.8091523399634659E+05
   5.6000000000000000E+03   1.0046534837076745E+03   2.8075696901006286E+03   1.5644846165950441E+03  -3.4989518026363098E+00   5.9148532561476482E+05
   5.7000000000000000E+03   1.0077035298055861E+03   2.8584542559242595E+03   1.5563816362906427E+03  -3.4979981640693785E+00   6.0205653695987235E+05
   5.8000000000000000E+03   1.0102053441168979E+03   2.9092740714076417E+03   1.5475818079683302E+03  -3.4971181664330691E+00   6.1262843098342628E+05
   5.9000000000000000E+03   1.0145535092346363E+03   2.9600227417412834E+03   1.5436386296269470E+03  -3.4963092694906122E+00   6.2320055075838731E+05
   6.0000000000000000E+03   1.0205134557599091E+03   3.0106942100951228E+03   1.5438064838521789E+03  -3.4955691315915982E+00   6.3377242057957675E+05
   6.1000000000000000E+03   1.0218761436549764E+03   3.0612827507110092E+03   1.5339029505498290E+03  -3.4948955898854384E+00   6.4434354693308077E+05
   6.2000000000000000E+03   1.0238174962049842E+03   3.1117829592687676E+03   1.5258383792503193E+03  -3.4942866422755530E+00   6.5491341663062398E+05
   6.3000000000000000E+03   1.0266578680538096E+03   3.1621897410795759E+03   1.5202240804575499E+03  -3.4937404312584803E+00   6.6548149808655458E+05
   6.4000000000000000E+03   1.0294065870255715E+03   3.2124982974420896E+03   1.5148089713392640E+03  -3.4932552292874046E+00   6.7604724068343407E+05
   6.5000000000000000E+03   1.0321196780775913E+03   3.2627041105970961E+03   1.5096945299166398E+03  -3.4928294256703953E+00   6.8661007485634473E+05
   6.6000000000000000E+03   1.0347788043126197E+03   3.3128029275909771E+03   1.5048208740663365E+03  -3.4924615147767675E+00   6.9716941280290019E+05
   6.7000000000000000E+03   1.0374817187447504E+03   3.3627907433791938E+03   1.5003743086441834E+03  -3.4921500854794663E+00   7.0772464647019899E+05
   6.8000000000000000E+03   1.0401322889459530E+03   3.4126637834574667E+03   1.4961326333083773E+03  -3.4918938117407383E+00   7.1827515081439272E+05
   6.9000000000000000E+03   1.0428222251453149E+03   3.4624184862244656E+03   1.4922683623996377E+03  -3.4916914441248457E+00   7.2882028030138963E+05
   7.0000000000000000E+03   1.0454971067320305E+03   3.5120514853471677E+03   1.4886514152937393E+03  -3.4915418022789710E+00   7.3935937251416803E+05
   7.1000000000000000E+03   1.0480323126581691E+03   3.5615595923093069E+03   1.4850165209728200E+03  -3.4914437682690349E+00   7.4989174644985772E+05
   7.2000000000000000E+03   1.0505546671641732E+03   3.6109397792300615E+03   1.4816090048493022E+03  -3.4913962805026291E+00   7.6041670321236760E+05
   7.3000000000000000E+03   1.0529562428820389E+03   3.6601891622289013E+03   1.4782028103049458E+03  -3.4913983285068526E+00   7.7093352883331373E+05
   7.4000000000000000E+03   1.0555112142473247E+03   3.7093049853095213E+03   1.4753267762365049E+03  -3.4914489481387565E+00   7.8144149154159869E+05
   7.5000000000000000E+03   1.0578462545457262E+03   3.7582846049579407E+03   1.4722377543870775E+03  -3.4915472174137858E+00   7.9193984623674711E+05
   7.6000000000000000E+03   1.0621134514537905E+03   3.8071254754662214E+03   1.4730715725443285E+03  -3.4916922527359509E+00   8.0242783173926512E+05
   7.7000000000000000E+03   1.0644070144289249E+03   3.8558251351181475E+03   1.4702803889579116E+03  -3.4918832056635707E+00   8.1290467523319554E+05
   7.8000000000000000E+03   1.0669147616271987E+03   3.9043811931728187E+03   1.4680850084089252E+03  -3.4921192599016551E+00   8.2336959034245333E+05
   7.9000000000000000E+03   1.0693471325637133E+03   3.9527913178065692E+03   1.4659226223112028E+03  -3.4923996287886574E+00   8.3382178117800527E+05
   8.0000000000000000E+03   1.0711584814890757E+03   4.0010532249067128E+03   1.4627699873439233E+03  -3.4927235529377585E+00   8.4426044092915149E+05
   8.1000000000000000E+03   1.0751372620767847E+03   4.0491646678180819E+03   1.4638089098479131E+03  -3.4930902982180427E+00   8.5468475545646704E+05
   8.2000000000000000E+03   1.0768990735192510E+03   4.0971234280167664E+03   1.4608810160592670E+03  -3.4934991539828641E+00   8.6509390245216235E+05
   8.3000000000000000E+03   1.0788954447149674E+03   4.1449273066753731E+03   1.4585442654165374E+03  -3.4939494314527453E+00   8.7548705404041719E+05
   8.4000000000000000E+03   1.0805974326411661E+03   4.1925741171504624E+03   1.4558222269794965E+03  -3.4944404623351515E+00   8.8586337898699590E+05
   8.5000000000000000E+03   1.0829339332675843E+03   4.2400616783150472E+03   1.4543936898967131E+03  -3.4949715975266713E+00   8.9622204091523483E+05
   8.6000000000000000E+03   1.0847855201689088E+03   4.2873878087984849E+03   1.4522240962749904E+03  -3.4955422060830079E+00   9.0656220370699186E+05
   8.7000000000000000E+03   1.0875397201022865E+03   4.3345503220011378E+03   1.4517955812037230E+03  -3.4961516741992753E+00   9.1688303055065172E+05
   8.8000000000000000E+03   1.0904667097895060E+03   4.3815470219192184E+03   1.4517820021500420E+03  -3.4967994043447774E+00   9.2718368417961500E+05
   8.9000000000000000E+03   1.0939773472298937E+03   4.4283756997279415E+03   1.4528986007014691E+03  -3.4974848145007966E+00   9.3746333183820033E+05
   9.0000000000000000E+03   1.0963824717997818E+03   4.4750341310815811E+03   1.4521618316421989E+03  -3.4982073374808005E+00   9.4772114333907352E+05
   9.1000000000000000E+03   1.0987325774020383E+03   4.5215200740910423E+03   1.4514314457402891E+03  -3.4989664203227226E+00   9.5795629318648542E+05
   9.2000000000000000E+03   1.1009908572741151E+03   4.5678312679291021E+03   1.4506408913730818E+03  -3.4997615237224551E+00   9.6816796332896361E+05
   9.3000000000000000E+03   1.1032274335953045E+03   4.6139654320617510E+03   1.4499097467639140E+03  -3.5005921215909495E+00   9.7835534180905484E+05
   9.4000000000000000E+03   1.1054809477423319E+03   4.6599202659952816E+03   1.4493011726496895E+03  -3.5014577005701106E+00   9.8851762836695928E+05
   9.5000000000000000E+03   1.1077213676469428E+03   4.7056934495589194E+03   1.4487597638341515E+03  -3.5023577596413853E+00   9.9865402735673636E+05
   9.6000000000000000E+03   1.1086839156377341E+03   4.7512826436801060E+03   1.4461298207633895E+03  -3.5032918098167691E+00   1.0087637587350085E+06
   9.7000000000000000E+03   1.1107657321035801E+03   4.7966854915458398E+03   1.4454991479504558E+03  -3.5042593737576913E+00   1.0188460532559170E+06
   9.8000000000000000E+03   1.1130059167684185E+03   4.8418996201847049E+03   1.4452176313653181E+03  -3.5052599854866164E+00   1.0289001534897790E+06
   9.9000000000000000E+03   1.1151515239684843E+03   4.8869226424097951E+03   1.4448541709104165E+03  -3.5062931901398442E+00   1.0389253168233982E+06
   1.0000000000000000E+04   1.1176004888831897E+03   4.9317521590543356E+03   1.4450732694021403E+03  -3.5073585436893997E+00   1.0489208144752653E+06
   1.0100000000000000E+04   1.1182245992583910E+03   4.9763857615057914E+03   1.4423236199582441E+03  -3.5084556127267352E+00   1.0588859351675473E+06
   1.0200000000000000E+04   1.1215861976033234E+03   5.0208210344587314E+03   1.4442022110745143E+03  -3.5095839742052277E+00   1.0688199818396845E+06
   1.0300000000000000E+04   1.1222037261021060E+03   5.0650555589177529E+03   1.4416022874165790E+03  -3.5107432152856717E+00   1.0787222759047996E+06
   1.0400000000000000E+04   1.1250781500427079E+03   5.1090869153276817E+03   1.4427985463262687E+03  -3.5119329330787830E+00   1.0885921551080672E+06
   1.0500000000000000E+04   1.1252285081444722E+03   5.1529126869062484E+03   1.4395876136119427E+03  -3.5131527345215958E+00   1.0984289778751440E+06
   1.0600000000000000E+04   1.1270036056144440E+03   5.1965304630411974E+03   1.4391128929017361E+03  -3.5144022361405538E+00   1.1082321170984050E+06
   1.0700000000000000E+04   1.1313635816160768E+03   5.2399378428300206E+03   1.4429031747763001E+03  -3.5156810639382110E+00   1.1180009713921237E+06
   1.0800000000000000E+04   1.1316767987894109E+03   5.2831324386182268E+03   1.4401691658115619E+03  -3.5169888531357403E+00   1.1277349523764469E+06
   1.0900000000000000E+04   1.1336350386749775E+03   5.3261118796722503E+03   1.4401670601150581E+03  -3.5183252481317169E+00   1.1374334951781190E+06
   1.1000000000000000E+04   1.1371109547004719E+03   5.3688738157683865E+03   1.4426624153448226E+03  -3.5196899022343233E+00   1.1470960557468415E+06
   1.1100000000000000E+04   1.1391007546425360E+03   5.4114159208597621E+03   1.4428120864954403E+03  -3.5210824775789455E+00   1.1567221094590484E+06
   1.1200000000000000E+04   1.1415329663437471E+03   5.4537358966743332E+03   1.4437213221105883E+03  -3.5225026449427759E+00   1.1663111529873188E+06
   1.1300000000000000E+04   1.1434426713983630E+03   5.4958314762855916E+03   1.4438434860743171E+03  -3.5239500835903033E+00   1.1758627027456928E+06
   1.1400000000000000E+04   1.1450020352447775E+03   5.5377004276488824E+03   1.4434585973847431E+03  -3.5254244811703175E+00   1.1853762994371725E+06
   1.1500000000000000E+04   1.1466976152244292E+03   5.5793405570156192E+03   1.4433412741043951E+03  -3.5269255334996061E+00   1.1948515001293069E+06
   1.1600000000000000E+04   1.1483776330046639E+03   5.6207497123349158E+03   1.4432482664388310E+03  -3.5284529445114532E+00   1.2042878881811050E+06
   1.1700000000000000E+04   1.1503599186229499E+03   5.6619257864759193E+03   1.4436789083341575E+03  -3.5300064260187360E+00   1.2136850660637422E+06
   1.1800000000000000E+04   1.1503592929612960E+03   5.7028667204099593E+03   1.4410400933755056E+03  -3.5315856976315261E+00   1.2230426541489088E+06
   1.1900000000000000E+04   1.1535839635141551E+03   5.7435705062475517E+03   1.4435098594808446E+03  -3.5331904866128800E+00   1.2323603002377860E+06
   1.2000000000000000E+04   1.1536961986190688E+03   5.7840351901490485E+03   1.4411513765537386E+03  -3.5348205277346509E+00   1.2416376689395327E+06
   1.2100000000000000E+04   1.1566879716452036E+03   5.8242588750927544E+03   1.4433310867525665E+03  -3.5364755631126741E+00   1.2508744442269499E+06
   1.2200000000000000E+04   1.1566069562099840E+03   5.8642397235346289E+03   1.4407709335784998E+03  -3.5381553421140746E+00   1.2600703353782082E+06
   1.2300000000000000E+04   1.1596094889043818E+03   5.9039759599003200E+03   1.4430391470005034E+03  -3.5398596212130595E+00   1.2692250687077215E+06
   1.2400000000000000E+04   1.1609308978453694E+03   5.9434658729188513E+03   1.4427397202787793E+03  -3.5415881638261193E+00   1.2783383913430357E+06
   1.2500000000000000E+04   1.1624550664737703E+03   5.9827078178348429E+03   1.4427934327947021E+03  -3.5433407402193238E+00   1.2874100721108767E+06
   1.2600000000000000E+04   1.1637466211751243E+03   6.0217002184251487E+03   1.4425278345368902E+03  -3.5451171273229254E+00   1.2964398936262012E+06
   1.2700000000000000E+04   1.1650619127996197E+03   6.0604415689160405E+03   1.4423374983531069E+03  -3.5469171086798528E+00   1.3054276661792148E+06
   1.2800000000000000E+04   1.1664319764657839E+03   6.0989304356712155E+03   1.4422685665781803E+03  -3.5487404742294109E+00   1.3143732108966417E+06
   1.2900000000000000E+04   1.1674831767612438E+03   6.1371654587919002E+03   1.4417495967593420E+03  -3.5505870202557794E+00   1.3232763738778518E+06
   1.3000000000000000E+04   1.1688403295303688E+03   6.1751453534968377E+03   1.4417337528028959E+03  -3.5524565491923141E+00   1.3321370133340082E+06
   1.3100000000000000E+04   1.1698894911830087E+03   6.2128689113930996E+03   1.4412848921032491E+03  -3.5543488695391394E+00   1.3409550107422962E+06
   1.3200000000000000E+04   1.1717938517278710E+03   6.2503350015729638E+03   1.4421669353424682E+03  -3.5562637957395502E+00   1.3497302623412297E+06
   1.3300000000000000E+04   1.1728367852645806E+03   6.2875425715348874E+03   1.4417762281866371E+03  -3.5582011480049127E+00   1.3584626797599802E+06
