#Te   kappa_tot   kappa_e_ph  kappa_e_e mu Ce
#[K]  [W/(K*m)]   [W/(K*m)]   [W/(K*m)]   [eV]  [J/(m^3*K)]
   3.0000000000000000E+02   3.1758302804680154E+00   3.1787196554361996E+00   3.4938608681853379E+03  -6.2504267324800029E+00   1.3902046345514723E+05
   4.0000000000000000E+02   3.9935668424130539E+00   3.9943101630758524E+00   2.1459842869852258E+04  -6.2495501600938175E+00   1.8056441109701412E+05
   5.0000000000000000E+02   4.9312027769367761E+00   4.9317596947704372E+00   4.3668034370831192E+04  -6.2483334817388814E+00   2.2009045067292408E+05
   6.0000000000000000E+02   5.9875245652261473E+00   5.9876249260020336E+00   3.5722174340913864E+05  -6.2467975952978430E+00   2.5748255675625114E+05
   7.0000000000000000E+02   7.1676139400753236E+00   7.1689353725926157E+00   3.8885194998368461E+04  -6.2449633740717791E+00   2.9275154567902751E+05
   8.0000000000000000E+02   8.4794071359162704E+00   8.4825668017929274E+00   2.2764159337669102E+04  -6.2428461971058891E+00   3.2602267693124438E+05
   9.0000000000000000E+02   9.9248924538315997E+00   9.9307709123635242E+00   1.6766611987405486E+04  -6.2404573425142029E+00   3.5747801921544207E+05
   1.0000000000000000E+03   1.1500295388371171E+01   1.1509863779598462E+01   1.3833760576990355E+04  -6.2378052925162990E+00   3.8731921362879412E+05
   1.1000000000000000E+03   1.3195919816138531E+01   1.3210713986629969E+01   1.1783528017499319E+04  -6.2348966194414421E+00   4.1574897266241448E+05
   1.2000000000000000E+03   1.4998774528542489E+01   1.5020051978795266E+01   1.0587846304918034E+04  -6.2317366473744196E+00   4.4296243987860973E+05
   1.3000000000000000E+03   1.6892213221287264E+01   1.6921975599369745E+01   9.6043944861459859E+03  -6.2283299701999866E+00   4.6914322082543653E+05
   1.4000000000000000E+03   1.8859401693688461E+01   1.8899321839100228E+01   8.9285722440490827E+03  -6.2246808470527935E+00   4.9446168546011200E+05
   1.5000000000000000E+03   2.0882622715847059E+01   2.0934769995873889E+01   8.3834267720567077E+03  -6.2207934866115950E+00   5.1907447897763952E+05
   1.6000000000000000E+03   2.2945023317031534E+01   2.3011650713508040E+01   7.9247110063956488E+03  -6.2166722354274206E+00   5.4312471894144651E+05
   1.7000000000000000E+03   2.5031620701547819E+01   2.5114487900635407E+01   7.5863108945899985E+03  -6.2123216893339208E+00   5.6674258822633151E+05
   1.8000000000000000E+03   2.7128285087363984E+01   2.7229320650868257E+01   7.3111362745134684E+03  -6.2077467470469418E+00   5.9004612875008513E+05
   1.9000000000000000E+03   2.9221883699949338E+01   2.9343855694882329E+01   7.0301608077742831E+03  -6.2029526227687084E+00   6.1314217179888848E+05
   2.0000000000000000E+03   3.1304421973557719E+01   3.1447496551078817E+01   6.8806472757315869E+03  -6.1979448320754491E+00   6.3612724823374441E+05
   2.1000000000000000E+03   3.3360531417044882E+01   3.3531288181526818E+01   6.5509650304491670E+03  -6.1927291613128572E+00   6.5908854117581539E+05
   2.2000000000000000E+03   3.5387474727822799E+01   3.5587807957458750E+01   6.2863393007825553E+03  -6.1873116286377208E+00   6.8210472912099154E+05
   2.3000000000000000E+03   3.7378492638371405E+01   3.7611026297587443E+01   6.0457633287396156E+03  -6.1816984417689405E+00   7.0524679927130986E+05
   2.4000000000000000E+03   3.9331894040564435E+01   3.9596153925122692E+01   5.8934095623335179E+03  -6.1758959561303266E+00   7.2857872764035780E+05
   2.5000000000000000E+03   4.1240305615330080E+01   4.1539487472721362E+01   5.7259526811437645E+03  -6.1699106354025464E+00   7.5215812092793838E+05
   2.6000000000000000E+03   4.3102411083790280E+01   4.3438261094085000E+01   5.5747915112442515E+03  -6.1637490157770038E+00   7.7603671157851396E+05
   2.7000000000000000E+03   4.4916410958935103E+01   4.5290508695311452E+01   5.4378492658166351E+03  -6.1574176743131979E+00   8.0026082097546069E+05
   2.8000000000000000E+03   4.6683753780477304E+01   4.7094939199598763E+01   5.3469029874603057E+03  -6.1509232015758020E+00   8.2487169470396300E+05
   2.9000000000000000E+03   4.8398428028763512E+01   4.8850825738194054E+01   5.2261607969052939E+03  -6.1442721782381042E+00   8.4990581057807000E+05
   3.0000000000000000E+03   5.0068156934928631E+01   5.0557908654385848E+01   5.1686215775107457E+03  -6.1374711553677681E+00   8.7539514825140906E+05
   3.1000000000000000E+03   5.1684096633447432E+01   5.2216311585122263E+01   5.0707949585311781E+03  -6.1305266380032215E+00   9.0136735861107579E+05
   3.2000000000000000E+03   5.3256962990616557E+01   5.3826469535049512E+01   5.0335405694027604E+03  -6.1234450715211590E+00   9.2784595992599218E+05
   3.3000000000000000E+03   5.4777787189060014E+01   5.5389067695590093E+01   4.9634996215607180E+03  -6.1162328302369611E+00   9.5485050737637433E+05
   3.4000000000000000E+03   5.6254437772907259E+01   5.6904989726997194E+01   4.9206803291267006E+03  -6.1088962081498854E+00   9.8239671066692180E+05
   3.5000000000000000E+03   5.7682332058401208E+01   5.8375274261752168E+01   4.8593114082000566E+03  -6.1014414110201418E+00   1.0104966020941790E+06
   3.6000000000000000E+03   5.9068008232506799E+01   5.9801078479607632E+01   4.8185431204116994E+03  -6.0938745499052436E+00   1.0391586416110127E+06
   3.7000000000000000E+03   6.0411423020197269E+01   6.1183647713542015E+01   4.7864193618727413E+03  -6.0862016355189432E+00   1.0683878841954151E+06
   3.8000000000000000E+03   6.1714416120838152E+01   6.2524290168939487E+01   4.7645063700857700E+03  -6.0784285733639045E+00   1.0981861124928789E+06
   3.9000000000000000E+03   6.2974290938477942E+01   6.3824355958220551E+01   4.7282189805798735E+03  -6.0705611595303068E+00   1.1285519657148093E+06
   4.0000000000000000E+03   6.4199780685013366E+01   6.5085219761786874E+01   4.7190788662374225E+03  -6.0626050767294970E+00   1.1594810967162948E+06
   4.1000000000000000E+03   6.5381708611380006E+01   6.6308266534655530E+01   4.6789819094833056E+03  -6.0545658908173055E+00   1.1909663481864706E+06
   4.2000000000000000E+03   6.6539866505430922E+01   6.7494879762867697E+01   4.7026575330223804E+03  -6.0464490474544830E+00   1.2229978529518456E+06
   4.3000000000000000E+03   6.7651375337355432E+01   6.8646431855930444E+01   4.6670972355482936E+03  -6.0382598689336282E+00   1.2555632653610313E+06
   4.4000000000000000E+03   6.8747414349026457E+01   6.9764276329934333E+01   4.7165826844385338E+03  -6.0300035512215464E+00   1.2886478738816911E+06
   4.5000000000000000E+03   6.9790681766616373E+01   7.0849741492107256E+01   4.6689073738789994E+03  -6.0216851611681310E+00   1.3222347565271584E+06
   4.6000000000000000E+03   7.0813711391580071E+01   7.1904125383258190E+01   4.6696007402820096E+03  -6.0133096336956324E+00   1.3563050269425858E+06
   4.7000000000000000E+03   7.1808386261469053E+01   7.2928691783816092E+01   4.6745209808343898E+03  -6.0048817693894785E+00   1.3908378956233528E+06
   4.8000000000000000E+03   7.2779729953956036E+01   7.3924667109522062E+01   4.6991376627193567E+03  -5.9964062320400959E+00   1.4258108886538863E+06
   4.9000000000000000E+03   7.3717924533254219E+01   7.4893238063170941E+01   4.6974478988453939E+03  -5.9878875465373502E+00   1.4612000343636533E+06
   5.0000000000000000E+03   7.4635590863238249E+01   7.5835549921441256E+01   4.7168534944030271E+03  -5.9793300968726406E+00   1.4969799890443687E+06
   5.1000000000000000E+03   7.5530664544315243E+01   7.6752705363191524E+01   4.7438536848438807E+03  -5.9707381245328115E+00   1.5331241878012787E+06
   5.2000000000000000E+03   7.6392945274665294E+01   7.7645763751188824E+01   4.7345953880835350E+03  -5.9621157270017306E+00   1.5696050707981316E+06
   5.3000000000000000E+03   7.7236476180633105E+01   7.8515740802543959E+01   4.7404415321375400E+03  -5.9534668566928097E+00   1.6063941844748002E+06
   5.4000000000000000E+03   7.8059135741832463E+01   7.9363608586313660E+01   4.7490867455079597E+03  -5.9447953202144950E+00   1.6434623011627733E+06
   5.5000000000000000E+03   7.8858877719039384E+01   8.0190295793083379E+01   4.7496100987970958E+03  -5.9361047777728579E+00   1.6807797002931247E+06
   5.6000000000000000E+03   7.9642590243702443E+01   8.0996688242348625E+01   4.7638989639093297E+03  -5.9273987432205786E+00   1.7183161441249694E+06
   5.7000000000000000E+03   8.0408221859861158E+01   8.1783629579327894E+01   4.7811831638322456E+03  -5.9186805842136341E+00   1.7560411438589825E+06
   5.8000000000000000E+03   8.1161800577270824E+01   8.2551922134592232E+01   4.8197674557816053E+03  -5.9099535227989000E+00   1.7939240360367096E+06
   5.9000000000000000E+03   8.1888180297339574E+01   8.3302327919286924E+01   4.8237368871356748E+03  -5.9012206364816358E+00   1.8319341316303094E+06
   6.0000000000000000E+03   8.2599373752747212E+01   8.4035569723293222E+01   4.8331046559477427E+03  -5.8924848593909260E+00   1.8700408221234886E+06
   6.1000000000000000E+03   8.3297087623550340E+01   8.4752332305220577E+01   4.8511583922956988E+03  -5.8837489840424730E+00   1.9082136984114323E+06
   6.2000000000000000E+03   8.3979574405447735E+01   8.5453263645976861E+01   4.8696350052531943E+03  -5.8750156632385560E+00   1.9464226643667659E+06
   6.3000000000000000E+03   8.4642128804952677E+01   8.6138976254804589E+01   4.8708947087475008E+03  -5.8662874123498838E+00   1.9846380794400210E+06
   6.4000000000000000E+03   8.5300934517988381E+01   8.6810048512756552E+01   4.9068382437388909E+03  -5.8575666119304568E+00   2.0228307387240478E+06
   6.5000000000000000E+03   8.5936760257425973E+01   8.7467026037767155E+01   4.9119786533825172E+03  -5.8488555104989066E+00   2.0609720847562409E+06
   6.6000000000000000E+03   8.6563753314129130E+01   8.8110423063580456E+01   4.9313493906407775E+03  -5.8401562276136465E+00   2.0990342309856913E+06
   6.7000000000000000E+03   8.7177110864370476E+01   8.8740723823148826E+01   4.9476181912430056E+03  -5.8314707572222257E+00   2.1369899966992200E+06
   6.8000000000000000E+03   8.7780016184014741E+01   8.9358383923486556E+01   4.9696152492358688E+03  -5.8228009710498707E+00   2.1748130729135294E+06
   6.9000000000000000E+03   8.8368018887420277E+01   8.9963831712040687E+01   4.9817406260068947E+03  -5.8141486223209942E+00   2.2124779755088300E+06
   7.0000000000000000E+03   8.8949159980135818E+01   9.0557469623351523E+01   5.0083706747031174E+03  -5.8055153495590561E+00   2.2499601428515892E+06
   7.1000000000000000E+03   8.9527262464551697E+01   9.1139675500467703E+01   5.0604190537500817E+03  -5.7969026804256014E+00   2.2872360091706989E+06
   7.2000000000000000E+03   9.0079801011109595E+01   9.1710803891799557E+01   5.0651602538233519E+03  -5.7883120357943367E+00   2.3242829676641971E+06
   7.3000000000000000E+03   9.0622830197941596E+01   9.2271187313624097E+01   5.0728546991000958E+03  -5.7797447337664423E+00   2.3610794712002571E+06
   7.4000000000000000E+03   9.1161048328926483E+01   9.2821137480731636E+01   5.0971191460566015E+03  -5.7712019938425909E+00   2.3976049610163583E+06
   7.5000000000000000E+03   9.1680787270161076E+01   9.3360946496077716E+01   5.0944011394979543E+03  -5.7626849409382634E+00   2.4338400539524532E+06
   7.6000000000000000E+03   9.2204872264959405E+01   9.3890888007555859E+01   5.1347072965334792E+03  -5.7541946096536902E+00   2.4697663529147464E+06
   7.7000000000000000E+03   9.2702578723685846E+01   9.4411218320011955E+01   5.1222992944379430E+03  -5.7457319483283431E+00   2.5053665797778810E+06
   7.8000000000000000E+03   9.3200102874453549E+01   9.4922177467315336E+01   5.1372668418033900E+03  -5.7372978231150187E+00   2.5406245496460916E+06
   7.9000000000000000E+03   9.3687928867881325E+01   9.5423990243731453E+01   5.1496313060166312E+03  -5.7288930220539127E+00   2.5755251729543628E+06
   8.0000000000000000E+03   9.4172087510943157E+01   9.5916867191374081E+01   5.1769812041201494E+03  -5.7205182590095873E+00   2.6100544381723572E+06
   8.1000000000000000E+03   9.4642393103247144E+01   9.6401005547592121E+01   5.1879661672596312E+03  -5.7121741776275314E+00   2.6441993743398990E+06
   8.2000000000000000E+03   9.5102594775715900E+01   9.6876590147657538E+01   5.1934831633646581E+03  -5.7038613550948360E+00   2.6779480770788253E+06
   8.3000000000000000E+03   9.5554951869437929E+01   9.7343794287896472E+01   5.1998328539099339E+03  -5.6955803059008954E+00   2.7112897003643494E+06
   8.4000000000000000E+03   9.6003211594280103E+01   9.7802780545414535E+01   5.2175722576739263E+03  -5.6873314854022219E+00   2.7442143951306995E+06
   8.5000000000000000E+03   9.6437398208718847E+01   9.8253701560920362E+01   5.2168220310919760E+03  -5.6791152934362259E+00   2.7767133042887347E+06
   8.6000000000000000E+03   9.6872542451221705E+01   9.8696700776485443E+01   5.2413215472309384E+03  -5.6709320775922265E+00   2.8087785657301284E+06
   8.7000000000000000E+03   9.7290513617580615E+01   9.9131913139232140E+01   5.2376437768155965E+03  -5.6627821365706241E+00   2.8404032184164198E+06
   8.8000000000000000E+03   9.7703945831838325E+01   9.9559465764743322E+01   5.2423865018233200E+03  -5.6546657233167856E+00   2.8715812455785917E+06
   8.9000000000000000E+03   9.8110261220260327E+01   9.9979478564245241E+01   5.2476576842006398E+03  -5.6465830480570256E+00   2.9023074952753843E+06
   9.0000000000000000E+03   9.8513713421547905E+01   1.0039206483536606E+02   5.2652528340717172E+03  -5.6385342811778880E+00   2.9325776964023719E+06
   9.1000000000000000E+03   9.8904583386893648E+01   1.0079733181986562E+02   5.2671120664992586E+03  -5.6305195560466492E+00   2.9623883855332718E+06
   9.2000000000000000E+03   9.9286895273166124E+01   1.0119538122726958E+02   5.2645790745470995E+03  -5.6225389716751453E+00   2.9917368767270870E+06
   9.3000000000000000E+03   9.9665882900361481E+01   1.0158630972495634E+02   5.2721036384519784E+03  -5.6145925951975109E+00   3.0206212583966451E+06
   9.4000000000000000E+03   1.0004119012235127E+02   1.0197020939985988E+02   5.2882940177573219E+03  -5.6066804643381376E+00   3.0490403540641791E+06
   9.5000000000000000E+03   1.0040585675418968E+02   1.0234716818855235E+02   5.2934603518216163E+03  -5.5988025896739622E+00   3.0769936638864889E+06
   9.6000000000000000E+03   1.0076581869092931E+02   1.0271727028059976E+02   5.3039439401466225E+03  -5.5909589568575662E+00   3.1044813423545663E+06
   9.7000000000000000E+03   1.0111131364232803E+02   1.0308059649200233E+02   5.2925939633633461E+03  -5.5831495286052704E+00   3.1315041763484403E+06
   9.8000000000000000E+03   1.0145533261740634E+02   1.0343722461571714E+02   5.2950705877784703E+03  -5.5753742467145626E+00   3.1580635540660340E+06
   9.9000000000000000E+03   1.0180577627896830E+02   1.0378722974453174E+02   5.3325196254261082E+03  -5.5676330338465290E+00   3.1841614340591473E+06
   1.0000000000000000E+04   1.0212134803448478E+02   1.0413068457276667E+02   5.2922771659830460E+03  -5.5599257953180388E+00   3.2098002760566124E+06
   1.0100000000000000E+04   1.0244546928739732E+02   1.0446765967336992E+02   5.2923990217899445E+03  -5.5522524206980899E+00   3.2349830863762139E+06
   1.0200000000000000E+04   1.0276466601358521E+02   1.0479822375506562E+02   5.2959177127501343E+03  -5.5446127853747447E+00   3.2597132819542303E+06
   1.0300000000000000E+04   1.0307521622840684E+02   1.0512244389823753E+02   5.2927765655714638E+03  -5.5370067519850101E+00   3.2839947656158074E+06
   1.0400000000000000E+04   1.0338073447628496E+02   1.0544038577179963E+02   5.2924029170810099E+03  -5.5294341717662840E+00   3.3078318287674440E+06
   1.0500000000000000E+04   1.0367905338177422E+02   1.0575211383178335E+02   5.2889335933993607E+03  -5.5218948858197567E+00   3.3312291901920014E+06
   1.0600000000000000E+04   1.0397229792382170E+02   1.0605769150399293E+02   5.2877605469853379E+03  -5.5143887263541522E+00   3.3541918688451000E+06
   1.0700000000000000E+04   1.0425902218634577E+02   1.0635718134791409E+02   5.2849640451207952E+03  -5.5069155177336384E+00   3.3767252233921490E+06
   1.0800000000000000E+04   1.0454042429611022E+02   1.0665064520687712E+02   5.2834770257910614E+03  -5.4994750775257257E+00   3.3988349342261502E+06
   1.0900000000000000E+04   1.0481413873900448E+02   1.0693814434439273E+02   5.2771186052289131E+03  -5.4920672175099918E+00   3.4205269357797024E+06
   1.1000000000000000E+04   1.0508407076462319E+02   1.0721973956431081E+02   5.2756713500653686E+03  -5.4846917444909415E+00   3.4418074797411812E+06
   1.1100000000000000E+04   1.0535693090970834E+02   1.0749549132248437E+02   5.2958031883078247E+03  -5.4773484612577557E+00   3.4626829672206496E+06
   1.1200000000000000E+04   1.0560738655393899E+02   1.0776545982140041E+02   5.2736062042551030E+03  -5.4700371672306733E+00   3.4831600636173678E+06
   1.1300000000000000E+04   1.0587274761638147E+02   1.0802970509791318E+02   5.3025624291775966E+03  -5.4627576592640468E+00   3.5032455918823276E+06
   1.1400000000000000E+04   1.0610816204830017E+02   1.0828828709770916E+02   5.2704642416780434E+03  -5.4555097322535344E+00   3.5229465788178346E+06
   1.1500000000000000E+04   1.0634845493479774E+02   1.0854126574272681E+02   5.2641093644133653E+03  -5.4482931798314445E+00   3.5422701273164852E+06
   1.1600000000000000E+04   1.0658328705227011E+02   1.0878870098550098E+02   5.2575424370312339E+03  -5.4411077948074293E+00   3.5612235781673649E+06
   1.1700000000000000E+04   1.0681267708613932E+02   1.0903065285970466E+02   5.2506686751019552E+03  -5.4339533698050673E+00   3.5798143002313818E+06
   1.1800000000000000E+04   1.0703667404690103E+02   1.0926718151951565E+02   5.2434685092618593E+03  -5.4268296976829786E+00   3.5980497705246373E+06
   1.1900000000000000E+04   1.0725526513206974E+02   1.0949834727268998E+02   5.2357753893971694E+03  -5.4197365719657418E+00   3.6159375835366631E+06
   1.2000000000000000E+04   1.0746872810409094E+02   1.0972421060761019E+02   5.2281147549698198E+03  -5.4126737872747990E+00   3.6334853237169604E+06
   1.2100000000000000E+04   1.0767694808126190E+02   1.0994483221279151E+02   5.2200744409261770E+03  -5.4056411396516486E+00   3.6507007020724812E+06
   1.2200000000000000E+04   1.0788009483133318E+02   1.1016027299236997E+02   5.2119176036922845E+03  -5.3986384269397769E+00   3.6675914188592802E+06
   1.2300000000000000E+04   1.0807816172606388E+02   1.1037059407459219E+02   5.2034909225798865E+03  -5.3916654490393014E+00   3.6841651848770594E+06
   1.2400000000000000E+04   1.0827124976696631E+02   1.1057585681641375E+02   5.1948926453369768E+03  -5.3847220081811793E+00   3.7004297764884126E+06
   1.2500000000000000E+04   1.0845945705428552E+02   1.1077612280417570E+02   5.1862113187840096E+03  -5.3778079092014321E+00   3.7163929194355621E+06
   1.2600000000000000E+04   1.0864282641546339E+02   1.1097145384970543E+02   5.1774071800323709E+03  -5.3709229597565935E+00   3.7320622902811910E+06
   1.2700000000000000E+04   1.0882138826014342E+02   1.1116191198220018E+02   5.1684131502519967E+03  -5.3640669704804020E+00   3.7474455949884620E+06
   1.2800000000000000E+04   1.0899524786654472E+02   1.1134755943761536E+02   5.1593313528249646E+03  -5.3572397551600979E+00   3.7625505185802984E+06
   1.2900000000000000E+04   1.0916445824534688E+02   1.1152845864607204E+02   5.1501445445197041E+03  -5.3504411309518609E+00   3.7773846413175622E+06
   1.3000000000000000E+04   1.0932899735148798E+02   1.1170467221403838E+02   5.1406697124903230E+03  -5.3436709184200017E+00   3.7919555412030504E+06
   1.3100000000000000E+04   1.0948902454655618E+02   1.1187626290708531E+02   5.1311268694994214E+03  -5.3369289417328210E+00   3.8062706668545580E+06
   1.3200000000000000E+04   1.0964466380754378E+02   1.1204329362811289E+02   5.1216528521393511E+03  -5.3302150286919883E+00   3.8203375081830099E+06
   1.3300000000000000E+04   1.0979580068102958E+02   1.1220582739579210E+02   5.1118639409822026E+03  -5.3235290108696542E+00   3.8341633699320550E+06
