#Te   kappa_tot   kappa_e_ph  kappa_e_e mu Ce
#[K]  [W/(K*m)]   [W/(K*m)]   [W/(K*m)]   [eV]  [J/(m^3*K)]
   3.0000000000000000E+02   7.7812953213013301E+01   7.7897725980917727E+01   7.1502349834640278E+04   2.6685825057310666E+00   3.2162814009241975E+05
   4.0000000000000000E+02   1.0945850300854985E+02   1.0962865410368904E+02   7.0524308734044622E+04   2.6637194213461850E+00   4.5719874045336584E+05
   5.0000000000000000E+02   1.4344989202271915E+02   1.4374310844046767E+02   7.0323256600452951E+04   2.6616084140754825E+00   5.9772083162281662E+05
   6.0000000000000000E+02   1.7844138812310317E+02   1.7889487884294667E+02   7.0392290540954011E+04   2.6603743616162241E+00   7.3169187487131474E+05
   7.0000000000000000E+02   2.1349031891529634E+02   2.1414361315603790E+02   6.9980087708201027E+04   2.6592816514971256E+00   8.5436838051656215E+05
   8.0000000000000000E+02   2.4807602731061471E+02   2.4896672633737120E+02   6.9341802951346574E+04   2.6581487123142278E+00   9.6437816758326639E+05
   9.0000000000000000E+02   2.8195386664093030E+02   2.8313047652178153E+02   6.7847239699747690E+04   2.6569632306795743E+00   1.0619766922422191E+06
   1.0000000000000000E+03   3.1503948811127918E+02   3.1654040002381174E+02   6.6441424548209121E+04   2.6557535970917274E+00   1.1480713327237174E+06
   1.1000000000000000E+03   3.4728088845136682E+02   3.4916035293551812E+02   6.4516631520278803E+04   2.6545512568368506E+00   1.2237710551978524E+06
   1.2000000000000000E+03   3.7868466845340839E+02   3.8098140253003970E+02   6.2816073298137751E+04   2.6533810665779671E+00   1.2902043324064491E+06
   1.3000000000000000E+03   4.0923397748841904E+02   4.1201322126380506E+02   6.0667513518919186E+04   2.6522600695990484E+00   1.3484493280029071E+06
   1.4000000000000000E+03   4.3898147325667145E+02   4.4228305632665769E+02   5.8806355480721897E+04   2.6511986269627097E+00   1.3995068334079247E+06
   1.5000000000000000E+03   4.6792944945809040E+02   4.7183630800823471E+02   5.6512438576123568E+04   2.6502019906560337E+00   1.4442900235239987E+06
   1.6000000000000000E+03   4.9618806185874047E+02   5.0073683305871288E+02   5.4621265342647879E+04   2.6492717334805969E+00   1.4836222323674262E+06
   1.7000000000000000E+03   5.2379460775490850E+02   5.2906651811030792E+02   5.2565800753045078E+04   2.6484068942791974E+00   1.5182395254332488E+06
   1.8000000000000000E+03   5.5086551106019806E+02   5.5692405314671794E+02   5.0637636708175349E+04   2.6476048450153540E+00   1.5487963287840751E+06
   1.9000000000000000E+03   5.7752368959625869E+02   5.8442292698026358E+02   4.8921071458822968E+04   2.6468619283673274E+00   1.5758728051673253E+06
   2.0000000000000000E+03   6.0385393529853820E+02   6.1168872118603565E+02   4.7144956705881777E+04   2.6461739192399603E+00   1.5999829125019356E+06
   2.1000000000000000E+03   6.2988511653664000E+02   6.3885584148005591E+02   4.4857666320058270E+04   2.6455363555037739E+00   1.6215823713046424E+06
   2.2000000000000000E+03   6.5583951173931484E+02   6.6606388021726093E+02   4.2724497941474081E+04   2.6449447731277314E+00   1.6410760398988542E+06
   2.3000000000000000E+03   6.8184652409482408E+02   6.9345383258237632E+02   4.0735462995025140E+04   2.6443948714627288E+00   1.6588244375237615E+06
   2.4000000000000000E+03   7.0798314090405108E+02   7.2116438686672450E+02   3.8734747016168607E+04   2.6438826271913412E+00   1.6751493276179803E+06
   2.5000000000000000E+03   7.3444665145365843E+02   7.4932848124088775E+02   3.6980788098953737E+04   2.6434043702997783E+00   1.6903383878064114E+06
   2.6000000000000000E+03   7.6125604935488229E+02   7.7807027564507860E+02   3.5226759408096303E+04   2.6429568315347578E+00   1.7046490572572255E+06
   2.7000000000000000E+03   7.8853287568728081E+02   8.0750263777435498E+02   3.3566176221216054E+04   2.6425371683736292E+00   1.7183116813105321E+06
   2.8000000000000000E+03   8.1648826118486363E+02   8.3772519436823939E+02   3.2207700678547390E+04   2.6421429747452496E+00   1.7315320788463762E+06
   2.9000000000000000E+03   8.4501041254521988E+02   8.6882295790435421E+02   3.0830994125787412E+04   2.6417722783825619E+00   1.7444936522151993E+06
   3.0000000000000000E+03   8.7427045851648234E+02   9.0086550645650266E+02   2.9614539562691392E+04   2.6414235289829637E+00   1.7573591418747683E+06
   3.1000000000000000E+03   9.0408927480432442E+02   9.3390667134463149E+02   2.8316858720026645E+04   2.6410955795247348E+00   1.7702721163186131E+06
   3.2000000000000000E+03   9.3461255170264747E+02   9.6798467235304145E+02   2.7109173975320929E+04   2.6407876627066318E+00   1.7833582674509739E+06
   3.3000000000000000E+03   9.6575501934737031E+02   1.0031226324362267E+03   2.5925410729141171E+04   2.6404993640310694E+00   1.7967265650028258E+06
   3.4000000000000000E+03   9.9757369903025540E+02   1.0393294014022058E+03   2.4830325358487535E+04   2.6402305927357714E+00   1.8104703179036917E+06
   3.5000000000000000E+03   1.0300627443988155E+03   1.0766006195823477E+03   2.3829325779378905E+04   2.6399815516107168E+00   1.8246681670863482E+06
   3.6000000000000000E+03   1.0631654204182526E+03   1.1149199568168449E+03   2.2903197035576573E+04   2.6397527064011643E+00   1.8393850374230102E+06
   3.7000000000000000E+03   1.0969544735319141E+03   1.1542604680316040E+03   2.2094916859616893E+04   2.6395447554688651E+00   1.8546730592718506E+06
   3.8000000000000000E+03   1.1312289229353235E+03   1.1945860136587996E+03   2.1329108299540614E+04   2.6393586001212799E+00   1.8705724725218418E+06
   3.9000000000000000E+03   1.1659896105818088E+03   1.2358527004063342E+03   2.0625932985537693E+04   2.6391953160063188E+00   1.8871125137362890E+06
   4.0000000000000000E+03   1.2011051397367235E+03   1.2780103051256062E+03   1.9959969377359452E+04   2.6390561258635787E+00   1.9043122906438706E+06
   4.1000000000000000E+03   1.2363023850336938E+03   1.3210036515470381E+03   1.9281411391747282E+04   2.6389423736812474E+00   1.9221816438045190E+06
   4.2000000000000000E+03   1.2717320753742999E+03   1.3647739158839272E+03   1.8654260867552268E+04   2.6388555006234382E+00   1.9407219899116466E+06
   4.3000000000000000E+03   1.3072808851846530E+03   1.4092598434217048E+03   1.8065476323861443E+04   2.6387970225311994E+00   1.9599271482747791E+06
   4.4000000000000000E+03   1.3431310898654792E+03   1.4543988631105899E+03   1.7556281330494592E+04   2.6387685092841107E+00   1.9797841427978135E+06
   4.5000000000000000E+03   1.3788078607437660E+03   1.5001280919691626E+03   1.7048998212728795E+04   2.6387715658421302E+00   2.0002739787956222E+06
   4.6000000000000000E+03   1.4142689818305489E+03   1.5463852248184169E+03   1.6553639491720787E+04   2.6388078150660377E+00   2.0213723897448087E+06
   4.7000000000000000E+03   1.4496764302677118E+03   1.5931093082794382E+03   1.6101559468561905E+04   2.6388788821853630E+00   2.0430505516493036E+06
   4.8000000000000000E+03   1.4848472935673326E+03   1.6402414005485950E+03   1.5673104030227785E+04   2.6389863809506462E+00   2.0652757612046369E+06
   4.9000000000000000E+03   1.5200805615241786E+03   1.6877251207662234E+03   1.5303080284095315E+04   2.6391319013184242E+00   2.0880120763420376E+06
   5.0000000000000000E+03   1.5549363259066454E+03   1.7355070933820025E+03   1.4944849939437820E+04   2.6393169986648397E+00   2.1112209177970649E+06
   5.1000000000000000E+03   1.5893872484514782E+03   1.7835372943208531E+03   1.4600725021916471E+04   2.6395431843516359E+00   2.1348616288820482E+06
   5.2000000000000000E+03   1.6238481578645367E+03   1.8317693064734235E+03   1.4305977212279280E+04   2.6398119176896397E+00   2.1588919941727906E+06
   5.3000000000000000E+03   1.6576078557924959E+03   1.8801604928083327E+03   1.4003737923842309E+04   2.6401245990907118E+00   2.1832687180893840E+06
   5.4000000000000000E+03   1.6906218306842977E+03   1.9286720955839751E+03   1.3697338880929441E+04   2.6404825643466969E+00   2.2079478581613554E+06
   5.5000000000000000E+03   1.7226354328827035E+03   1.9772692701233063E+03   1.3376517991385805E+04   2.6408870800558528E+00   2.2328852215216709E+06
   5.6000000000000000E+03   1.7547862624351126E+03   2.0259210617622318E+03   1.3111774869109315E+04   2.6413393399017191E+00   2.2580367207166622E+06
   5.7000000000000000E+03   1.7865731864561383E+03   2.0746003339568088E+03   1.2868319397745501E+04   2.6418404618909377E+00   2.2833586862037382E+06
   5.8000000000000000E+03   1.8184496364496983E+03   2.1232836553472821E+03   1.2666186028413953E+04   2.6423914864107245E+00   2.3088081513435263E+06
   5.9000000000000000E+03   1.8493411119451039E+03   2.1719511531603025E+03   1.2450568945548033E+04   2.6429933749010566E+00   2.3343430897361073E+06
   6.0000000000000000E+03   1.8794738182640135E+03   2.2205863394199637E+03   1.2235065051237114E+04   2.6436470093383031E+00   2.3599226339451410E+06
   6.1000000000000000E+03   1.9084694989274806E+03   2.2691759164195710E+03   1.2006032646431986E+04   2.6443531921122823E+00   2.3855072439513528E+06
   6.2000000000000000E+03   1.9387347623991582E+03   2.3177095666689720E+03   1.1856788513167487E+04   2.6451126465754173E+00   2.4110588687400101E+06
   6.3000000000000000E+03   1.9672725763645706E+03   2.3661797324995218E+03   1.1669182733140022E+04   2.6459260179279376E+00   2.4365410620296835E+06
   6.4000000000000000E+03   1.9953813854816851E+03   2.4145813895350070E+03   1.1493346163698528E+04   2.6467938745210993E+00   2.4619190782283940E+06
   6.5000000000000000E+03   2.0215088897793323E+03   2.4629118177987430E+03   1.1279485971610482E+04   2.6477167095210485E+00   2.4871599533414966E+06
   6.6000000000000000E+03   2.0486057023380436E+03   2.5111703737695884E+03   1.1121467472485210E+04   2.6486949427939810E+00   2.5122325548911938E+06
   6.7000000000000000E+03   2.0752630368094628E+03   2.5593582659890940E+03   1.0971687567259776E+04   2.6497289230945600E+00   2.5371076189866434E+06
   6.8000000000000000E+03   2.1025274518192750E+03   2.6074783366158313E+03   1.0857085209322191E+04   2.6508189303690970E+00   2.5617577659565122E+06
   6.9000000000000000E+03   2.1281679470983104E+03   2.6555348506058872E+03   1.0716304178122838E+04   2.6519651782964195E+00   2.5861575093028643E+06
   7.0000000000000000E+03   2.1536201607473990E+03   2.7035332941299375E+03   1.0587824610909605E+04   2.6531678168615294E+00   2.6102832348628691E+06
   7.1000000000000000E+03   2.1782665154814263E+03   2.7514801831632353E+03   1.0455886677011595E+04   2.6544269351095622E+00   2.6341131962087518E+06
   7.2000000000000000E+03   2.2036780770967148E+03   2.7993828832445029E+03   1.0355697361413017E+04   2.6557425638505965E+00   2.6576274691558536E+06
   7.3000000000000000E+03   2.2273083760497129E+03   2.8472494407411800E+03   1.0229524852046756E+04   2.6571146785037820E+00   2.6808079130851384E+06
   7.4000000000000000E+03   2.2500999004579330E+03   2.8950884260999505E+03   1.0099773748533244E+04   2.6585432018840955E+00   2.7036381367239878E+06
   7.5000000000000000E+03   2.2727164640017636E+03   2.9429087890891419E+03   9.9798177428342879E+03   2.6600280070300837E+00   2.7261034305313155E+06
   7.6000000000000000E+03   2.2959537155984635E+03   2.9907197260884782E+03   9.8832613624600272E+03   2.6615689199496426E+00   2.7481907189109372E+06
   7.7000000000000000E+03   2.3182612908572132E+03   3.0385305591305969E+03   9.7798255272020560E+03   2.6631657223903837E+00   2.7698884877624987E+06
   7.8000000000000000E+03   2.3397405542091610E+03   3.0863506264920652E+03   9.6720630934323544E+03   2.6648181545280294E+00   2.7911867329069567E+06
   7.9000000000000000E+03   2.3615818995714935E+03   3.1341891844052584E+03   9.5800862780070038E+03   2.6665259176138423E+00   2.8120768927048519E+06
   8.0000000000000000E+03   2.3850739416051574E+03   3.1820553195113107E+03   9.5227284271705721E+03   2.6682886764990958E+00   2.8325517637035851E+06
   8.1000000000000000E+03   2.4065546522946911E+03   3.2299578714239160E+03   9.4401745847087568E+03   2.6701060621677501E+00   2.8526054418736603E+06
   8.2000000000000000E+03   2.4262767643876755E+03   3.2779053649773614E+03   9.3387018911757750E+03   2.6719776741543702E+00   2.8722332759887972E+06
   8.3000000000000000E+03   2.4463582778121195E+03   3.3259059516389375E+03   9.2506157404931619E+03   2.6739030827981258E+00   2.8914317497764323E+06
   8.4000000000000000E+03   2.4675138329967863E+03   3.3739673592863082E+03   9.1844875546984094E+03   2.6758818315705533E+00   2.9101984632058414E+06
   8.5000000000000000E+03   2.4870949292722353E+03   3.4220968500675372E+03   9.1027403623321279E+03   2.6779134391574289E+00   2.9285320372392451E+06
   8.6000000000000000E+03   2.5060187387669012E+03   3.4703011855524828E+03   9.0187681307998610E+03   2.6799974015242474E+00   2.9464320501186047E+06
   8.7000000000000000E+03   2.5232991368379949E+03   3.5185865986548756E+03   8.9204846518091708E+03   2.6821331939161328E+00   2.9638989987360598E+06
   8.8000000000000000E+03   2.5408789259914365E+03   3.5669587718943453E+03   8.8328509809208590E+03   2.6843202726610369E+00   2.9809341961617316E+06
   8.9000000000000000E+03   2.5579926506748411E+03   3.6154228212593353E+03   8.7459439527354571E+03   2.6865580769975188E+00   2.9975397359633902E+06
   9.0000000000000000E+03   2.5778857429425366E+03   3.6639832853256526E+03   8.6965764169724607E+03   2.6888460307468063E+00   3.0137184429189889E+06
   9.1000000000000000E+03   2.5957182209231805E+03   3.7126441190730015E+03   8.6281265423647710E+03   2.6911835439028904E+00   3.0294737973105228E+06
   9.2000000000000000E+03   2.6128916450077331E+03   3.7614086919200449E+03   8.5572550890728926E+03   2.6935700141570340E+00   3.0448098932494922E+06
   9.3000000000000000E+03   2.6294418004051117E+03   3.8102797895845165E+03   8.4845753962698327E+03   2.6960048283075544E+00   3.0597313788976949E+06
   9.4000000000000000E+03   2.6477420243987644E+03   3.8592596192876576E+03   8.4343173554901750E+03   2.6984873636286149E+00   3.0742434116561790E+06
   9.5000000000000000E+03   2.6628535184396060E+03   3.9083498179992762E+03   8.3559967764107860E+03   2.7010169891078633E+00   3.0883516214093817E+06
   9.6000000000000000E+03   2.6784600946573287E+03   3.9575514632719337E+03   8.2872450921216841E+03   2.7035930666513059E+00   3.1020620482390509E+06
   9.7000000000000000E+03   2.6920780224702762E+03   4.0068650863815328E+03   8.2042132404029035E+03   2.7062149521980081E+00   3.1153811149849310E+06
   9.8000000000000000E+03   2.7089400327156950E+03   4.0562906874481077E+03   8.1554480186468918E+03   2.7088819967610220E+00   3.1283155787277324E+06
   9.9000000000000000E+03   2.7237560960182705E+03   4.1058277522571489E+03   8.0916740596831069E+03   2.7115935473863755E+00   3.1408725044281119E+06
   1.0000000000000000E+04   2.7378270113652525E+03   4.1554752704492385E+03   8.0252434746031340E+03   2.7143489481038321E+00   3.1530592154575908E+06
   1.0100000000000000E+04   2.7526447757123146E+03   4.2052317549708387E+03   7.9688923185093890E+03   2.7171475407219514E+00   3.1648832665286162E+06
   1.0200000000000000E+04   2.7682556268088574E+03   4.2550952623912344E+03   7.9223011822041490E+03   2.7199886656559094E+00   3.1763524084006855E+06
   1.0300000000000000E+04   2.7819936509414138E+03   4.3050634139962112E+03   7.8635000018753090E+03   2.7228716626651730E+00   3.1874745829899861E+06
   1.0400000000000000E+04   2.7943436063135214E+03   4.3551334174671574E+03   7.7971672628658553E+03   2.7257958715092143E+00   3.1982578649728345E+06
   1.0500000000000000E+04   2.8072409863026423E+03   4.4053020889416712E+03   7.7385930742568844E+03   2.7287606325622273E+00   3.2087104192951261E+06
   1.0600000000000000E+04   2.8219277101835833E+03   4.4555658752529616E+03   7.6964930648462978E+03   2.7317652874442531E+00   3.2188405441838936E+06
   1.0700000000000000E+04   2.8338166691367360E+03   4.5059208763412626E+03   7.6364580832761576E+03   2.7348091795293481E+00   3.2286565934599577E+06
   1.0800000000000000E+04   2.8430234865758316E+03   4.5563628676189574E+03   7.5605841955935566E+03   2.7378916544373761E+00   3.2381669762543887E+06
   1.0900000000000000E+04   2.8548556265007969E+03   4.6068873222048260E+03   7.5067124782618102E+03   2.7410120604847887E+00   3.2473801285668374E+06
   1.1000000000000000E+04   2.8685850035340495E+03   4.6574894329174003E+03   7.4684841302509321E+03   2.7441697491108590E+00   3.2563044985339968E+06
   1.1100000000000000E+04   2.8795458147052891E+03   4.7081641339741418E+03   7.4139989652687727E+03   2.7473640752464950E+00   3.2649485335941399E+06
   1.1200000000000000E+04   2.8930941028691868E+03   4.7589061222706941E+03   7.3790730766466668E+03   2.7505943976830904E+00   3.2733206626796606E+06
   1.1300000000000000E+04   2.9036389398444830E+03   4.8097098782674675E+03   7.3269365847667677E+03   2.7538600793429975E+00   3.2814292795555606E+06
   1.1400000000000000E+04   2.9163299208972931E+03   4.8605696862785489E+03   7.2907802119358676E+03   2.7571604876155784E+00   3.2892827411572966E+06
   1.1500000000000000E+04   2.9258078994795014E+03   4.9114796542902131E+03   7.2368688006165512E+03   2.7604949945703114E+00   3.2968893255989482E+06
   1.1600000000000000E+04   2.9315402491113200E+03   4.9624337330972130E+03   7.1631399366010646E+03   2.7638629772354681E+00   3.3042572679463113E+06
   1.1700000000000000E+04   2.9409088714686486E+03   5.0134257348909368E+03   7.1140691206939518E+03   2.7672638177620339E+00   3.3113947134962999E+06
   1.1800000000000000E+04   2.9555816078220437E+03   5.0644493511234650E+03   7.0978340882078537E+03   2.7706969036368219E+00   3.3183097207012386E+06
   1.1900000000000000E+04   2.9624411354160693E+03   5.1154981697407948E+03   7.0385326373570451E+03   2.7741616278218055E+00   3.3250102435767073E+06
   1.2000000000000000E+04   2.9712125490165417E+03   5.1665656916654871E+03   6.9924808542976052E+03   2.7776573889344371E+00   3.3315041448279708E+06
   1.2100000000000000E+04   2.9794626943036319E+03   5.2176453466317671E+03   6.9457153759214989E+03   2.7811835913460086E+00   3.3377991650686334E+06
   1.2200000000000000E+04   2.9873616175804277E+03   5.2687305082698058E+03   6.8991925672415382E+03   2.7847396453045925E+00   3.3439029537289934E+06
   1.2300000000000000E+04   2.9956390313490365E+03   5.3198145084976131E+03   6.8567301126263410E+03   2.7883249670170098E+00   3.3498230001348518E+06
   1.2400000000000000E+04   3.0027664463501478E+03   5.3708906511696714E+03   6.8102552228999639E+03   2.7919389787471829E+00   3.3555666974320468E+06
   1.2500000000000000E+04   3.0095896905135892E+03   5.4219522250396676E+03   6.7642617083432388E+03   2.7955811088735083E+00   3.3611412982213213E+06
   1.2600000000000000E+04   3.0196247480714519E+03   5.4729925160145922E+03   6.7362031340384528E+03   2.7992507919380416E+00   3.3665539173009242E+06
   1.2700000000000000E+04   3.0264546130738436E+03   5.5240048187101847E+03   6.6938193388460950E+03   2.8029474686874716E+00   3.3718115355167249E+06
   1.2800000000000000E+04   3.0300944217082997E+03   5.5749824472898836E+03   6.6379043183223193E+03   2.8066705861386940E+00   3.3769210046578408E+06
   1.2900000000000000E+04   3.0353528559807428E+03   5.6259187457127719E+03   6.5918603344542953E+03   2.8104195975460278E+00   3.3818890106023089E+06
   1.3000000000000000E+04   3.0415387356919978E+03   5.6768070972345104E+03   6.5519811694561140E+03   2.8141939624585905E+00   3.3867220951179415E+06
   1.3100000000000000E+04   3.0475722205301299E+03   5.7276409333195397E+03   6.5130417418993529E+03   2.8179931467120962E+00   3.3914266973711243E+06
   1.3200000000000000E+04   3.0531378124950065E+03   5.7784137419227391E+03   6.4735806386436961E+03   2.8218166224206613E+00   3.3960090392451035E+06
   1.3300000000000000E+04   3.0587773069442410E+03   5.8291190751446748E+03   6.4360207650879065E+03   2.8256638679850075E+00   3.4004752720627813E+06
