#Te   kappa_tot   kappa_e_ph  kappa_e_e mu Ce
#[K]  [W/(K*m)]   [W/(K*m)]   [W/(K*m)]   [eV]  [J/(m^3*K)]
   3.0000000000000000E+02   1.3944389413766537E+03   7.4071094906974258E+03   1.7178326722118316E+03   4.0496070330101679E+00   2.2048057063171222E+04
   4.0000000000000000E+02   1.5257656228596682E+03   1.0267611473883846E+04   1.7920664448568450E+03   4.0452272021740896E+00   2.9534483601726930E+04
   5.0000000000000000E+02   1.5911414056531555E+03   1.3055981682796455E+04   1.8119670701703703E+03   4.0390800527835893E+00   3.6832035430063050E+04
   6.0000000000000000E+02   1.6295825735920901E+03   1.5804831851260169E+04   1.8169189168293549E+03   4.0314997497189333E+00   4.4046842742266097E+04
   7.0000000000000000E+02   1.6533798250800303E+03   1.8549538030862521E+04   1.8151719208149125E+03   4.0228001013327859E+00   5.1249357408456286E+04
   8.0000000000000000E+02   1.6666939059430840E+03   2.1307840979350025E+04   1.8081249825357997E+03   4.0132713613409710E+00   5.8455381892593432E+04
   9.0000000000000000E+02   1.6704426081107981E+03   2.4084162053039508E+04   1.7949368275484983E+03   4.0032193776692004E+00   6.5649737618692845E+04
   1.0000000000000000E+03   1.6589563150802483E+03   2.6877162430606561E+04   1.7680892186157701E+03   3.9929798972729365E+00   7.2813486675543551E+04
   1.1000000000000000E+03   1.6548075667471608E+03   2.9684614369598748E+04   1.7525031413982524E+03   3.9829000011139271E+00   7.9940256681280065E+04
   1.2000000000000000E+03   1.6519815755957923E+03   3.2505286702521276E+04   1.7404337888961541E+03   3.9732976573061558E+00   8.7039745940428344E+04
   1.3000000000000000E+03   1.6485940679591156E+03   3.5339122985320435E+04   1.7292654758665592E+03   3.9644196010301465E+00   9.4131965132673417E+04
   1.4000000000000000E+03   1.6276050537527722E+03   3.8186867014279655E+04   1.7000654391364212E+03   3.9564169696852938E+00   1.0123834179415196E+05
   1.5000000000000000E+03   1.6150751320958534E+03   4.1049658624009491E+04   1.6812218350995590E+03   3.9493462484619855E+00   1.0837505040418137E+05
   1.6000000000000000E+03   1.5982796861787890E+03   4.3928720823581782E+04   1.6586262804171995E+03   3.9431892291353101E+00   1.1555057382117282E+05
   1.7000000000000000E+03   1.5805501769365251E+03   4.6825141952177946E+04   1.6357642647157656E+03   3.9378797738228104E+00   1.2276650442658970E+05
   1.8000000000000000E+03   1.5532824188804609E+03   4.9739740508708201E+04   1.6033522179162289E+03   3.9333278035017671E+00   1.3001968178689801E+05
   1.9000000000000000E+03   1.5357196558429889E+03   5.2672994396869472E+04   1.5818393380764730E+03   3.9294364593324791E+00   1.3730431653769020E+05
   2.0000000000000000E+03   1.5188556547596102E+03   5.5625012994309320E+04   1.5614926227763531E+03   3.9261124416977600E+00   1.4461355909495841E+05
   2.1000000000000000E+03   1.4855414075792476E+03   5.8595533665702962E+04   1.5241832141418920E+03   3.9232712183122698E+00   1.5194047039344159E+05
   2.2000000000000000E+03   1.4493739687965517E+03   6.1583931069311926E+04   1.4843070422689937E+03   3.9208389542601720E+00   1.5927853731288997E+05
   2.3000000000000000E+03   1.4077350241030308E+03   6.4589233684022467E+04   1.4391005019742213E+03   3.9187525921520665E+00   1.6662189357777784E+05
   2.4000000000000000E+03   1.3758087311782269E+03   6.7610145728556381E+04   1.4043868033775632E+03   3.9169590150168960E+00   1.7396537114552711E+05
   2.5000000000000000E+03   1.3396935308938998E+03   7.0645074232827857E+04   1.3655902035409758E+03   3.9154138410311430E+00   1.8130446362360838E+05
   2.6000000000000000E+03   1.3105680807277386E+03   7.3692161288238480E+04   1.3342977144385941E+03   3.9140801458333092E+00   1.8863525256940431E+05
   2.7000000000000000E+03   1.2783201706864111E+03   7.6749321137721563E+04   1.2999722282693958E+03   3.9129272581038879E+00   1.9595432339073447E+05
   2.8000000000000000E+03   1.2590388342913989E+03   7.9814281272540160E+04   1.2792179940400297E+03   3.9119296890116559E+00   2.0325868677268387E+05
   2.9000000000000000E+03   1.2357349061007867E+03   8.2884626282259036E+04   1.2544374350931375E+03   3.9110662124205997E+00   2.1054571051324721E+05
   3.0000000000000000E+03   1.2121761733867277E+03   8.5957842980982605E+04   1.2295147716971583E+03   3.9103190904610310E+00   2.1781306501919965E+05
   3.1000000000000000E+03   1.1814876645459431E+03   8.9031365278502184E+04   1.1973774203360235E+03   3.9096734302080129E+00   2.2505868105996662E+05
   3.2000000000000000E+03   1.1571673531967549E+03   9.2102617371579283E+04   1.1718908636421233E+03   3.9091166540136437E+00   2.3228071763871980E+05
   3.3000000000000000E+03   1.1324656812885701E+03   9.5169054042033604E+04   1.1461037613343551E+03   3.9086380659790811E+00   2.3947753924057970E+05
   3.4000000000000000E+03   1.1052579383306431E+03   9.8228197106303822E+04   1.1178357610438763E+03   3.9082284990088256E+00   2.4664769859550238E+05
   3.5000000000000000E+03   1.0877012221515638E+03   1.0127766735394781E+05   1.0995097294736813E+03   3.9078800284457307E+00   2.5378992442812413E+05
   3.6000000000000000E+03   1.0730466224820016E+03   1.0431521158403327E+05   1.0841993240400213E+03   3.9075857405943397E+00   2.6090311141467406E+05
   3.7000000000000000E+03   1.0579413795932951E+03   1.0733872459805696E+05   1.0684723516915637E+03   3.9073395462269085E+00   2.6798631244495104E+05
   3.8000000000000000E+03   1.0427811830187838E+03   1.1034626621811523E+05   1.0527295629383161E+03   3.9071360307707899E+00   2.7503873119243921E+05
   3.9000000000000000E+03   1.0285458698256771E+03   1.1333607356404224E+05   1.0379655999903002E+03   3.9069703343222084E+00   2.8205971503058996E+05
   4.0000000000000000E+03   1.0139162094794285E+03   1.1630656894032759E+05   1.0228328755070987E+03   3.9068380560778246E+00   2.8904874740807404E+05
   4.1000000000000000E+03   9.9916135095683273E+02   1.1925636377979661E+05   1.0076033179976700E+03   3.9067351780671591E+00   2.9600544043514697E+05
   4.2000000000000000E+03   9.8123453058280370E+02   1.2218425911698557E+05   9.8917840168085263E+02   3.9066580049650113E+00   3.0292952648355591E+05
   4.3000000000000000E+03   9.6958571915557275E+02   1.2508924310538433E+05   9.7715983341424419E+02   3.9066031162890043E+00   3.0982084996915038E+05
   4.4000000000000000E+03   9.5396901259286290E+02   1.2797048606703333E+05   9.6113388294273511E+02   3.9065673289038960E+00   3.1667935834954411E+05
   4.5000000000000000E+03   9.4382974256605871E+02   1.3082733355685009E+05   9.5068830856398620E+02   3.9065476674261159E+00   3.2350509283663204E+05
   4.6000000000000000E+03   9.3345887699198227E+02   1.3365929788093551E+05   9.4002387956852829E+02   3.9065413409606244E+00   3.3029818041917711E+05
   4.7000000000000000E+03   9.1937144613337591E+02   1.3646604846789109E+05   9.2560726005767958E+02   3.9065457248453219E+00   3.3705882396625000E+05
   4.8000000000000000E+03   9.1488296088682876E+02   1.3924740144830645E+05   9.2093367724241330E+02   3.9065583462361659E+00   3.4378729436861194E+05
   4.9000000000000000E+03   9.0329939460379660E+02   1.4200330874904987E+05   9.0908217094821146E+02   3.9065768726457639E+00   3.5048392168246990E+05
   5.0000000000000000E+03   8.9654239372155268E+02   1.4473384696223898E+05   9.0213057035035683E+02   3.9065991027426490E+00   3.5714908784619451E+05
   5.1000000000000000E+03   8.9094085134468298E+02   1.4743920620384527E+05   8.9635733033667566E+02   3.9066229589129167E+00   3.6378321863429784E+05
   5.2000000000000000E+03   8.7612537995967330E+02   1.5011967913895176E+05   8.8126862174182122E+02   3.9066464810494237E+00   3.7038677739468520E+05
   5.3000000000000000E+03   8.6734713308310040E+02   1.5277565031055553E+05   8.7229940385126622E+02   3.9066678213133335E+00   3.7696025763975177E+05
   5.4000000000000000E+03   8.6285743079826068E+02   1.5540758587913407E+05   8.6767495484685776E+02   3.9066852395276745E+00   3.8350417837283260E+05
   5.5000000000000000E+03   8.6266001323967191E+02   1.5801602384976752E+05   8.6739540216342903E+02   3.9066970990449126E+00   3.9001907769922301E+05
   5.6000000000000000E+03   8.5254958822633125E+02   1.6060156483907410E+05   8.5709948043845884E+02   3.9067018630156198E+00   3.9650550824306795E+05
   5.7000000000000000E+03   8.4901081608446884E+02   1.6316486341785017E+05   8.5345165999635037E+02   3.9066980907786655E+00   4.0296403278963576E+05
   5.8000000000000000E+03   8.3803250947872300E+02   1.6570662004395184E+05   8.4229225657455072E+02   3.9066844344094411E+00   4.0939522031813202E+05
   5.9000000000000000E+03   8.3353837834164801E+02   1.6822757358789266E+05   8.3768898160118874E+02   3.9066596354139040E+00   4.1579964170154324E+05
   6.0000000000000000E+03   8.2780282264908078E+02   1.7072849444562750E+05   8.3183610530755527E+02   3.9066225213861783E+00   4.2217786783946084E+05
   6.1000000000000000E+03   8.2200553289627851E+02   1.7321017822069151E+05   8.2592513530041685E+02   3.9065720027390860E+00   4.2853046552223060E+05
   6.2000000000000000E+03   8.1663019101144789E+02   1.7567343995431258E+05   8.2044408233071738E+02   3.9065070694589599E+00   4.3485799530353298E+05
   6.3000000000000000E+03   8.1190422653494329E+02   1.7811910887799776E+05   8.1562200255177845E+02   3.9064267878118706E+00   4.4116100976984791E+05
   6.4000000000000000E+03   8.1161877269631725E+02   1.8054802365739256E+05   8.1528372322548614E+02   3.9063302971592169E+00   4.4744005042781285E+05
   6.5000000000000000E+03   8.0774513847343781E+02   1.8296102809871169E+05   8.1132702400481139E+02   3.9062168067125644E+00   4.5369564657876763E+05
   6.6000000000000000E+03   8.0476355505637116E+02   1.8535896728489621E+05   8.0827279172753913E+02   3.9060855923249318E+00   4.5992831454551005E+05
   6.7000000000000000E+03   8.0149427785902071E+02   1.8774268410975169E+05   8.0493061566139806E+02   3.9059359933428599E+00   4.6613855463219056E+05
   6.8000000000000000E+03   7.9554861939700288E+02   1.9011301617886871E+05   7.9889166858302508E+02   3.9057674095556996E+00   4.7232685078803479E+05
   6.9000000000000000E+03   7.9160941690627237E+02   1.9247079304972809E+05   7.9487865802603358E+02   3.9055792980112161E+00   4.7849367036462011E+05
   7.0000000000000000E+03   7.8956375856165710E+02   1.9481683377795373E+05   7.9277676531463408E+02   3.9053711701472111E+00   4.8463946081022121E+05
   7.1000000000000000E+03   7.8292255732203091E+02   1.9715194474737550E+05   7.8604406663102168E+02   3.9051425887772604E+00   4.9076465166172513E+05
   7.2000000000000000E+03   7.7912321823173090E+02   1.9947691775509823E+05   7.8217827473400712E+02   3.9048931652952672E+00   4.9686965185473289E+05
   7.3000000000000000E+03   7.7544323954883600E+02   2.0179252833034060E+05   7.7843458835627894E+02   3.9046225568556769E+00   5.0295485039201647E+05
   7.4000000000000000E+03   7.7331089110027415E+02   2.0409953426335321E+05   7.7625202542311786E+02   3.9043304637603304E+00   5.0902061463780218E+05
   7.5000000000000000E+03   7.7336870422017125E+02   2.0639867432646718E+05   7.7627738878531886E+02   3.9040166268088528E+00   5.1506729040530091E+05
   7.6000000000000000E+03   7.6491324767524384E+02   2.0869066716725065E+05   7.6772719575738188E+02   3.9036808248313415E+00   5.2109520222225360E+05
   7.7000000000000000E+03   7.6247127332287334E+02   2.1097621035790732E+05   7.6523685108755342E+02   3.9033228723183124E+00   5.2710465199862828E+05
   7.8000000000000000E+03   7.6249940169625779E+02   2.1325597958636546E+05   7.6523551076220133E+02   3.9029426170627670E+00   5.3309591969060735E+05
   7.9000000000000000E+03   7.6340806873571023E+02   2.1553062797411295E+05   7.6612166664728898E+02   3.9025399380089181E+00   5.3906926262575667E+05
   8.0000000000000000E+03   7.6279213401508116E+02   2.1780078550966157E+05   7.6547300951833108E+02   3.9021147431373531E+00   5.4502491479302570E+05
   8.1000000000000000E+03   7.6157863705060697E+02   2.2006705858607750E+05   7.6422335901809583E+02   3.9016669674595827E+00   5.5096308839792921E+05
   8.2000000000000000E+03   7.5888951559418774E+02   2.2233002963273737E+05   7.6148874082078680E+02   3.9011965711098453E+00   5.5688397202463250E+05
   8.3000000000000000E+03   7.5540989364784639E+02   2.2459025683253503E+05   7.5795929163133758E+02   3.9007035375098211E+00   5.6278773270630580E+05
   8.4000000000000000E+03   7.5249078474020564E+02   2.2684827391608342E+05   7.5499522057388947E+02   3.9001878717035003E+00   5.6867451304913161E+05
   8.5000000000000000E+03   7.5221228335338867E+02   2.2910459002686877E+05   7.5469013501764096E+02   3.8996495986434465E+00   5.7454443558207201E+05
   8.6000000000000000E+03   7.4960049324596230E+02   2.3135968964937027E+05   7.5203707744542544E+02   3.8990887617565990E+00   5.8039759774855664E+05
   8.7000000000000000E+03   7.4738937181091592E+02   2.3361403259647335E+05   7.4978813045389177E+02   3.8985054213520800E+00   5.8623407722118823E+05
   8.8000000000000000E+03   7.4699928734336561E+02   2.3586805404873801E+05   7.4937256665626148E+02   3.8978996533814554E+00   5.9205392749450426E+05
   8.9000000000000000E+03   7.4495001562570906E+02   2.3812216464320416E+05   7.4728785806206668E+02   3.8972715480288613E+00   5.9785718282034190E+05
   9.0000000000000000E+03   7.4219747641662570E+02   2.4037675060581559E+05   7.4449621458608226E+02   3.8966212085441851E+00   6.0364385487539740E+05
   9.1000000000000000E+03   7.4113454661643516E+02   2.4263217392470408E+05   7.4340532282046729E+02   3.8959487500884364E+00   6.0941393354206055E+05
   9.2000000000000000E+03   7.3971971895648983E+02   2.4488877256068253E+05   7.4196091242516889E+02   3.8952542986520045E+00   6.1516738908683264E+05
   9.3000000000000000E+03   7.3815756774454940E+02   2.4714686069194961E+05   7.4036883945658747E+02   3.8945379900215671E+00   6.2090417113458889E+05
   9.4000000000000000E+03   7.3855125337425704E+02   2.4940672899004197E+05   7.4074477069048680E+02   3.8937999688442035E+00   6.2662421015981329E+05
   9.5000000000000000E+03   7.3586429783147696E+02   2.5166864492463527E+05   7.3802223137635065E+02   3.8930403877401520E+00   6.3232741642613022E+05
   9.6000000000000000E+03   7.3406917242632801E+02   2.5393285309485393E+05   7.3619737202333624E+02   3.8922594064520055E+00   6.3801368154874665E+05
   9.7000000000000000E+03   7.3295059933578261E+02   2.5619957558472484E+05   7.3505348295550152E+02   3.8914571910911575E+00   6.4368287928692123E+05
   9.8000000000000000E+03   7.3310453682776142E+02   2.5846901234103006E+05   7.3518978085330764E+02   3.8906339133842418E+00   6.4933486398977146E+05
   9.9000000000000000E+03   7.2952041609975095E+02   2.6074134157138216E+05   7.3156724625978632E+02   3.8897897500167957E+00   6.5496947422884754E+05
   1.0000000000000000E+04   7.3022217901365570E+02   2.6301672016107716E+05   7.3225516368814669E+02   3.8889248819526450E+00   6.6058653182149376E+05
   1.0100000000000000E+04   7.2967747829098448E+02   2.6529528410651849E+05   7.3168994404233695E+02   3.8880394939355578E+00   6.6618584069846058E+05
   1.0200000000000000E+04   7.3002684419939249E+02   2.6757714896443824E+05   7.3202401467294771E+02   3.8871337738572529E+00   6.7176719027170318E+05
   1.0300000000000000E+04   7.2933386101282872E+02   2.6986241031475167E+05   7.3131031031378006E+02   3.8862079122468987E+00   6.7733035597684467E+05
   1.0400000000000000E+04   7.3043800241170777E+02   2.7215114423566352E+05   7.3240373186091449E+02   3.8852621018821942E+00   6.8287509605549742E+05
   1.0500000000000000E+04   7.3010225172145238E+02   2.7444340779021598E+05   7.3204972481531604E+02   3.8842965372788854E+00   6.8840115724503598E+05
   1.0600000000000000E+04   7.2603012513633939E+02   2.7673923952245992E+05   7.2793988787471142E+02   3.8833114142775309E+00   6.9390827268403000E+05
   1.0700000000000000E+04   7.2235753571446378E+02   2.7903865996200452E+05   7.2423238244408230E+02   3.8823069297396389E+00   6.9939616237073124E+05
   1.0800000000000000E+04   7.2259774854816578E+02   2.8134167213621456E+05   7.2445844710312417E+02   3.8812832811344240E+00   7.0486453419021005E+05
   1.0900000000000000E+04   7.2344947880237476E+02   2.8364826208843495E+05   7.2529936656425718E+02   3.8802406662349602E+00   7.1031308617200435E+05
   1.1000000000000000E+04   7.2140348207911268E+02   2.8595839940128662E+05   7.2322801042361709E+02   3.8791792828629394E+00   7.1574150356117007E+05
   1.1100000000000000E+04   7.2190281658357878E+02   2.8827203772416600E+05   7.2371517419822158E+02   3.8780993285848089E+00   7.2114946219211735E+05
   1.1200000000000000E+04   7.1925184698000578E+02   2.9058911530377629E+05   7.2103652101688181E+02   3.8770010004322391E+00   7.2653663091455691E+05
   1.1300000000000000E+04   7.1809520696610525E+02   2.9290955551650887E+05   7.1986001120001890E+02   3.8758844947684126E+00   7.3190266670755798E+05
   1.1400000000000000E+04   7.1823519478474350E+02   2.9523326740232267E+05   7.1998675833367633E+02   3.8747500069841836E+00   7.3724722066286125E+05
   1.1500000000000000E+04   7.1921830727991437E+02   2.9756014619856031E+05   7.2096090718755261E+02   3.8735977313886751E+00   7.4256993355570792E+05
   1.1600000000000000E+04   7.1835877594133331E+02   2.9989007387344248E+05   7.2008366938857557E+02   3.8724278609662086E+00   7.4787044334114948E+05
   1.1700000000000000E+04   7.1783010419848404E+02   3.0222291965793044E+05   7.1953913026917598E+02   3.8712405872790612E+00   7.5314837871088844E+05
   1.1800000000000000E+04   7.1842916988937463E+02   3.0455854057554720E+05   7.2012789383256995E+02   3.8700361003094703E+00   7.5840336275414075E+05
   1.1900000000000000E+04   7.1613616988839340E+02   3.0689678196930810E+05   7.1781116476758768E+02   3.8688145883016141E+00   7.6363501689918467E+05
   1.2000000000000000E+04   7.1607580867128945E+02   3.0923747802486719E+05   7.1773781513204358E+02   3.8675762377251659E+00   7.6884295268980204E+05
   1.2100000000000000E+04   7.1418072847169537E+02   3.1158045228969731E+05   7.1582147936550825E+02   3.8663212330686609E+00   7.7402678382714931E+05
   1.2200000000000000E+04   7.1261920027785061E+02   3.1392551818706497E+05   7.1424054514023464E+02   3.8650497568395035E+00   7.7918611644471972E+05
   1.2300000000000000E+04   7.1083521395395712E+02   3.1627247952471289E+05   7.1243644373110760E+02   3.8637619894667297E+00   7.8432055506974633E+05
   1.2400000000000000E+04   7.1330473847118310E+02   3.1862113099756971E+05   7.1490521385397778E+02   3.8624581091794625E+00   7.8942970319442393E+05
   1.2500000000000000E+04   7.1067833966149817E+02   3.2097125868375943E+05   7.1225537952672721E+02   3.8611382920069208E+00   7.9451316161622107E+05
   1.2600000000000000E+04   7.1048901553712562E+02   3.2332264053372713E+05   7.1205372610002109E+02   3.8598027117054858E+00   7.9957053033834579E+05
   1.2700000000000000E+04   7.0925897442300425E+02   3.2567504685189028E+05   7.1080697827930328E+02   3.8584515397100896E+00   8.0460140905350947E+05
   1.2800000000000000E+04   7.0960643463247538E+02   3.2802824077042635E+05   7.1114481723355652E+02   3.8570849450977445E+00   8.0960539684419904E+05
   1.2900000000000000E+04   7.0683727346174317E+02   3.3038197871482145E+05   7.0835276209995379E+02   3.8557030945632489E+00   8.1458209414960793E+05
   1.3000000000000000E+04   7.0573814011139996E+02   3.3273601086084108E+05   7.0723820309760481E+02   3.8543061524070206E+00   8.1953110088815098E+05
   1.3100000000000000E+04   7.0899974557684607E+02   3.3509008158268832E+05   7.1050306220129835E+02   3.8528942804743256E+00   8.2445202078282135E+05
   1.3200000000000000E+04   7.0901727067061643E+02   3.3744392989186669E+05   7.1051015267146420E+02   3.8514676382039084E+00   8.2934445706622174E+05
   1.3300000000000000E+04   7.0770646307475636E+02   3.3979728986676439E+05   7.0918350177600576E+02   3.8500263825793550E+00   8.3420801436915027E+05
