#Te   kappa_tot   kappa_e_ph  kappa_e_e mu Ce
#[K]  [W/(K*m)]   [W/(K*m)]   [W/(K*m)]   [eV]  [J/(m^3*K)]
   3.0000000000000000E+02   6.8649252140066395E+01   6.8698939050923116E+01   9.4916965199573664E+04   2.3148189035604996E+00   3.9332368214388838E+05
   4.0000000000000000E+02   8.6826186730403805E+01   8.6911946434637159E+01   8.7992757877332711E+04   2.3177455418604325E+00   4.7193840047032235E+05
   5.0000000000000000E+02   1.0193768127110427E+02   1.0206673749211821E+02   8.0619488724449810E+04   2.3209969322244461E+00   5.2754796593934612E+05
   6.0000000000000000E+02   1.1535283135929171E+02   1.1553358875984776E+02   7.3729355144250148E+04   2.3244912511243219E+00   5.6817781082846504E+05
   7.0000000000000000E+02   1.2794970456422597E+02   1.2819331888881953E+02   6.7328952459164779E+04   2.3282339684419391E+00   5.9918347217211011E+05
   8.0000000000000000E+02   1.4015617018481461E+02   1.4047601459160745E+02   6.1556743809934611E+04   2.3322540096171682E+00   6.2365337356439629E+05
   9.0000000000000000E+02   1.5216202077402829E+02   1.5257300927882474E+02   5.6487753639094510E+04   2.3365766138726132E+00   6.4343325397319265E+05
   1.0000000000000000E+03   1.6406009354373947E+02   1.6457800664071664E+02   5.2133617246425114E+04   2.3412163691298069E+00   6.5976713926339138E+05
   1.1000000000000000E+03   1.7590971224983599E+02   1.7655358884758104E+02   4.8235160463389715E+04   2.3461776556160441E+00   6.7359620421924058E+05
   1.2000000000000000E+03   1.8776389687317820E+02   1.8855531072188521E+02   4.4734976491901449E+04   2.3514570235008359E+00   6.8568062620234303E+05
   1.3000000000000000E+03   1.9967515859800216E+02   2.0063689710068343E+02   4.1656026183311602E+04   2.3570456214163640E+00   6.9664749098815932E+05
   1.4000000000000000E+03   2.1169329446495587E+02   2.1284887454775551E+02   3.8992260378015038E+04   2.3629311721686941E+00   7.0701240772388177E+05
   1.5000000000000000E+03   2.2385678567586262E+02   2.2523602742543574E+02   3.6556762535257491E+04   2.3690994487184267E+00   7.1719336280716676E+05
   1.6000000000000000E+03   2.3621163256784303E+02   2.3783558105933642E+02   3.4594404427867841E+04   2.3755353275442772E+00   7.2752279097190208E+05
   1.7000000000000000E+03   2.4876876371008220E+02   2.5067648495790920E+02   3.2688465007767398E+04   2.3822235134838325E+00   7.3825914397317381E+05
   1.8000000000000000E+03   2.6155237604452878E+02   2.6377959993649387E+02   3.0976760515348346E+04   2.3891490179789798E+00   7.4959792560705449E+05
   1.9000000000000000E+03   2.7457315838265561E+02   2.7715845250594469E+02   2.9435827433123784E+04   2.3962974558818759E+00   7.6168189657699422E+05
   2.0000000000000000E+03   2.8783551407006962E+02   2.9082025084008478E+02   2.8045487040425789E+04   2.4036552110746641E+00   7.7461022486812610E+05
   2.1000000000000000E+03   3.0129073996023243E+02   3.0476694177824629E+02   2.6414881014085626E+04   2.4112095094152273E+00   7.8844648770020204E+05
   2.2000000000000000E+03   3.1496963438403390E+02   3.1899617691729219E+02   2.4952948685789434E+04   2.4189484282878548E+00   8.0322565726053889E+05
   2.3000000000000000E+03   3.2886244601539931E+02   3.3350212814610700E+02   2.3638758545026049E+04   2.4268608647547731E+00   8.1895994971526193E+05
   2.4000000000000000E+03   3.4295676690526182E+02   3.4827614368402317E+02   2.2454446299988940E+04   2.4349364789951484E+00   8.3564383554830356E+05
   2.5000000000000000E+03   3.5723809103692105E+02   3.6330726585283458E+02   2.1384652452719845E+04   2.4431656249195655E+00   8.5325813000383461E+05
   2.6000000000000000E+03   3.7167099402532608E+02   3.7858264570568906E+02   2.0358113336345508E+04   2.4515392768837327E+00   8.7177340847435046E+05
   2.7000000000000000E+03   3.8627554212988827E+02   3.9408789170888798E+02   1.9485368963246823E+04   2.4600489581900558E+00   8.9115272310788464E+05
   2.8000000000000000E+03   4.0101418103705242E+02   4.0980738472311168E+02   1.8689271696073400E+04   2.4686866754325956E+00   9.1135383877201343E+05
   2.9000000000000000E+03   4.1587100107104709E+02   4.2572458288143440E+02   1.7967731112438687E+04   2.4774448607596495E+00   9.3233092789956462E+05
   3.0000000000000000E+03   4.3082384492338326E+02   4.4182233050760493E+02   1.7306709523297246E+04   2.4863163231684311E+00   9.5403592379982129E+05
   3.1000000000000000E+03   4.4581279514953462E+02   4.5808317651671325E+02   1.6643275805603716E+04   2.4952942090408521E+00   9.7641954782441305E+05
   3.2000000000000000E+03   4.6085539594188003E+02   4.7448970075398438E+02   1.6038304990598976E+04   2.5043719713476467E+00   9.9943208595431200E+05
   3.3000000000000000E+03   4.7596627171788219E+02   4.9102484190960718E+02   1.5520149678819307E+04   2.5135433468088064E+00   1.0230239291737038E+06
   3.4000000000000000E+03   4.9106635785031335E+02   5.0767221782034051E+02   1.5012817609976402E+04   2.5228023398726114E+00   1.0471459894248550E+06
   3.5000000000000000E+03   5.0616665010245663E+02   5.2441642799785916E+02   1.4544949979103159E+04   2.5321432124219507E+00   1.0717500003726827E+06
   3.6000000000000000E+03   5.2125533782843968E+02   5.4124332861691153E+02   1.4114774070654244E+04   2.5415604778999761E+00   1.0967886685799856E+06
   3.7000000000000000E+03   5.3632008531808901E+02   5.5814027166362712E+02   1.3718573864485303E+04   2.5510488988566391E+00   1.1222158436642592E+06
   3.8000000000000000E+03   5.5135091250397386E+02   5.7509630194588578E+02   1.3353323668630215E+04   2.5606034867397307E+00   1.1479866067332453E+06
   3.9000000000000000E+03   5.6628495287902967E+02   5.9210230801024750E+02   1.2987334523113532E+04   2.5702195030480759E+00   1.1740572912276248E+06
   4.0000000000000000E+03   5.8122070924229990E+02   6.0915112533311378E+02   1.2676189568772743E+04   2.5798924611271197E+00   1.2003855615174079E+06
   4.1000000000000000E+03   5.9606949528963594E+02   6.2623759226040954E+02   1.2373373299339659E+04   2.5896181278252079E+00   1.2269304432966653E+06
   4.2000000000000000E+03   6.1077657239342852E+02   6.4335856101430056E+02   1.2060293227914262E+04   2.5993925246158232E+00   1.2536523730227121E+06
   4.3000000000000000E+03   6.2549649991083425E+02   6.6051286748136170E+02   1.1798724865551110E+04   2.6092119276517702E+00   1.2805131636397205E+06
   4.4000000000000000E+03   6.4015884130061659E+02   6.7770126455467800E+02   1.1555899131214206E+04   2.6190728666816221E+00   1.3074761535640687E+06
   4.5000000000000000E+03   6.5476341946273794E+02   6.9492632439065687E+02   1.1329168974438422E+04   2.6289721224492171E+00   1.3345060817271003E+06
   4.6000000000000000E+03   6.6931173276618290E+02   7.1219231527158001E+02   1.1116422509819780E+04   2.6389067227774277E+00   1.3615693447908924E+06
   4.7000000000000000E+03   6.8383837244726590E+02   7.2950505869867300E+02   1.0924014702669090E+04   2.6488739369646805E+00   1.3886337678229320E+06
   4.8000000000000000E+03   6.9836677881423611E+02   7.4687177216984344E+02   1.0753334814285412E+04   2.6588712690050684E+00   1.4156688764125411E+06
   4.9000000000000000E+03   7.1279466505636435E+02   7.6430090262159933E+02   1.0577157867460995E+04   2.6688964493843743E+00   1.4426458135044440E+06
   5.0000000000000000E+03   7.2719480125828568E+02   7.8180195503826519E+02   1.0411132570799298E+04   2.6789474257770709E+00   1.4695373195579255E+06
   5.1000000000000000E+03   7.4155119709961537E+02   7.9938532013004135E+02   1.0249747208485074E+04   2.6890223527681241E+00   1.4963178650406909E+06
   5.2000000000000000E+03   7.5589572762456339E+02   8.1706210438365133E+02   1.0097275441703767E+04   2.6991195808782540E+00   1.5229635618734267E+06
   5.3000000000000000E+03   7.7023924832737248E+02   8.3484396517910136E+02   9.9532916410109756E+03   2.7092376448771169E+00   1.5494522588168201E+06
   5.4000000000000000E+03   7.8459122469761382E+02   8.5274295312085303E+02   9.8171338192092990E+03   2.7193752517250220E+00   1.5757634219138254E+06
   5.5000000000000000E+03   7.9895646246016702E+02   8.7077136320610521E+02   9.6875216804935353E+03   2.7295312683598314E+00   1.6018782354096894E+06
   5.6000000000000000E+03   8.1334730031593733E+02   8.8894159598695387E+02   9.5644551062566625E+03   2.7397047092826461E+00   1.6277794633796965E+06
   5.7000000000000000E+03   8.2767623768286182E+02   9.0726602949943560E+02   9.4349101402874894E+03   2.7498947243601934E+00   1.6534515706276484E+06
   5.8000000000000000E+03   8.4212076425798637E+02   9.2575690237784761E+02   9.3213188422243184E+03   2.7601005866581687E+00   1.6788805266590316E+06
   5.9000000000000000E+03   8.5657261785037360E+02   9.4442620830891553E+02   9.2081567229676621E+03   2.7703216807699227E+00   1.7040538344360963E+06
   6.0000000000000000E+03   8.7115093420269920E+02   9.6328560173968685E+02   9.1080499261871282E+03   2.7805574913773312E+00   1.7289604784234439E+06
   6.1000000000000000E+03   8.8576724798921828E+02   9.8234631458744946E+02   9.0095112977661738E+03   2.7908075924927402E+00   1.7535908937940011E+06
   6.2000000000000000E+03   9.0051091846376926E+02   1.0016190835548450E+03   8.9208316664666963E+03   2.8010716369950388E+00   1.7779368090930714E+06
   6.3000000000000000E+03   9.1534606796224125E+02   1.0211140875628723E+03   8.8370073347383532E+03   2.8113493470170638E+00   1.8019913274196915E+06
   6.4000000000000000E+03   9.3029962143638875E+02   1.0408408947394155E+03   8.7595688146020111E+03   2.8216405046580824E+00   1.8257487519248053E+06
   6.5000000000000000E+03   9.4537815089015726E+02   1.0608084183618523E+03   8.6880600986699974E+03   2.8319449436095452E+00   1.8492045572046225E+06
   6.6000000000000000E+03   9.6040836630089075E+02   1.0810248811279798E+03   8.6076549426344664E+03   2.8422625411368583E+00   1.8723552846276236E+06
   6.7000000000000000E+03   9.7552905263394518E+02   1.1014977871221072E+03   8.5302364679276652E+03   2.8525932109125063E+00   1.8951985524187349E+06
   6.8000000000000000E+03   9.9075111293535826E+02   1.1222339008502163E+03   8.4562740406837474E+03   2.8629368963754867E+00   1.9177329699208031E+06
   6.9000000000000000E+03   1.0060639001143071E+03   1.1432392327337859E+03   8.3846833048212120E+03   2.8732935646015330E+00   1.9399579476475208E+06
   7.0000000000000000E+03   1.0214745907414617E+03   1.1645190304699279E+03   8.3157835587173486E+03   2.8836632009628036E+00   1.9618738239150324E+06
   7.1000000000000000E+03   1.0369610380121483E+03   1.1860777756995635E+03   8.2480106561260927E+03   2.8940458040816441E+00   1.9834816514799630E+06
   7.2000000000000000E+03   1.0525336908332536E+03   1.2079191854461860E+03   8.1820741482529402E+03   2.9044413815273868E+00   2.0047832434159862E+06
   7.3000000000000000E+03   1.0680606630231819E+03   1.2300462178274020E+03   8.1103773762403825E+03   2.9148499458846233E+00   2.0257810341495704E+06
   7.4000000000000000E+03   1.0837378770607668E+03   1.2524610815693682E+03   8.0447708280221996E+03   2.9252715112703873E+00   2.0464780185481168E+06
   7.5000000000000000E+03   1.0995768323978004E+03   1.2751652488854129E+03   7.9853910252222950E+03   2.9357060904085830E+00   2.0668778826764298E+06
   7.6000000000000000E+03   1.1155355667402939E+03   1.2981594713185341E+03   7.9296468055537871E+03   2.9461536918592053E+00   2.0869846004316970E+06
   7.7000000000000000E+03   1.1315439981178822E+03   1.3214437981660501E+03   7.8740040710186040E+03   2.9566143178977025E+00   2.1068027315454544E+06
   7.8000000000000000E+03   1.1476174676073638E+03   1.3450175971475935E+03   7.8194765744127235E+03   2.9670879625026627E+00   2.1263371846826398E+06
   7.9000000000000000E+03   1.1637704481784963E+03   1.3688795769938570E+03   7.7668975926205821E+03   2.9775746097614642E+00   2.1455932585050771E+06
   8.0000000000000000E+03   1.1799878594672323E+03   1.3930278116660875E+03   7.7157166470441134E+03   2.9880742325081080E+00   2.1645765507408273E+06
   8.1000000000000000E+03   1.1962512698140579E+03   1.4174597659381284E+03   7.6653386945986958E+03   2.9985867911932340E+00   2.1832929086195063E+06
   8.2000000000000000E+03   1.2125743913967178E+03   1.4421723220942324E+03   7.6165373983988457E+03   3.0091122330791964E+00   2.2017484697037926E+06
   8.3000000000000000E+03   1.2286613142195126E+03   1.4671618075219849E+03   7.5582441346000869E+03   3.0196504914661131E+00   2.2199495433261208E+06
   8.4000000000000000E+03   1.2448321895139188E+03   1.4924240229906550E+03   7.5035490392989468E+03   3.0302014853048820E+00   2.2379026504474571E+06
   8.5000000000000000E+03   1.2612494431229597E+03   1.5179542714339184E+03   7.4580559786471940E+03   3.0407651187328000E+00   2.2556144719801671E+06
   8.6000000000000000E+03   1.2777605300623286E+03   1.5437473870608692E+03   7.4159283726716403E+03   3.0513412809806977E+00   2.2730917475110767E+06
   8.7000000000000000E+03   1.2941809079310892E+03   1.5697977646457709E+03   7.3711104630315513E+03   3.0619298462181375E+00   2.2903413859337396E+06
   8.8000000000000000E+03   1.3106436809659551E+03   1.5960993888517071E+03   7.3283438390006204E+03   3.0725306736617712E+00   2.3073703644299377E+06
   8.9000000000000000E+03   1.3271194948252123E+03   1.6226458634643855E+03   7.2868115576865921E+03   3.0831436076217864E+00   2.3241857207255377E+06
   9.0000000000000000E+03   1.3435220888132944E+03   1.6494304404173361E+03   7.2441508021661084E+03   3.0937684777495567E+00   2.3407944717735769E+06
   9.1000000000000000E+03   1.3602415927848645E+03   1.6764460485058173E+03   7.2116999048547532E+03   3.1044050993472405E+00   2.3572037279490782E+06
   9.2000000000000000E+03   1.3769933839521821E+03   1.7036853216971160E+03   7.1809651395345854E+03   3.1150532735999610E+00   2.3734205380150429E+06
   9.3000000000000000E+03   1.3934824665974709E+03   1.7311406269483900E+03   7.1442494040720967E+03   3.1257127881021067E+00   2.3894520301795909E+06
   9.4000000000000000E+03   1.4099751488993934E+03   1.7588040914628798E+03   7.1091293128404968E+03   3.1363834171669009E+00   2.4053052297896920E+06
   9.5000000000000000E+03   1.4264220883963803E+03   1.7866676293125420E+03   7.0744586167336274E+03   3.1470649223217579E+00   2.4209871510308706E+06
   9.6000000000000000E+03   1.4428234980493614E+03   1.8147229673696067E+03   7.0404105296425505E+03   3.1577570528345524E+00   2.4365047128301761E+06
   9.7000000000000000E+03   1.4591882183174921E+03   1.8429616704963303E+03   7.0073319067046614E+03   3.1684595461780156E+00   2.4518648854544908E+06
   9.8000000000000000E+03   1.4755039943378704E+03   1.8713751659460961E+03   6.9750508000890914E+03   3.1791721285560106E+00   2.4670744253642429E+06
   9.9000000000000000E+03   1.4917672988616264E+03   1.8999547669367421E+03   6.9435997239163662E+03   3.1898945154917615E+00   2.4821401525807022E+06
   1.0000000000000000E+04   1.5079730918749208E+03   1.9286916953664247E+03   6.9129702252254347E+03   3.2006264122767294E+00   2.4970686831281171E+06
   1.0100000000000000E+04   1.5232295396514289E+03   1.9575771036394287E+03   6.8650995599718508E+03   3.2113675146052794E+00   2.5118665782666975E+06
   1.0200000000000000E+04   1.5394007049403745E+03   1.9866020955844297E+03   6.8384775413473999E+03   3.2221175091009528E+00   2.5265403659165511E+06
   1.0300000000000000E+04   1.5553746349681337E+03   2.0157577464471610E+03   6.8101074754721230E+03   3.2328760738118243E+00   2.5410963197488259E+06
   1.0400000000000000E+04   1.5712685879522655E+03   2.0450351219411136E+03   6.7824534192211195E+03   3.2436428788451304E+00   2.5555407748646964E+06
   1.0500000000000000E+04   1.5870931051144316E+03   2.0744252963547747E+03   6.7557738727256001E+03   3.2544175868161753E+00   2.5698798256838578E+06
   1.0600000000000000E+04   1.6026803126448540E+03   2.1039193697055171E+03   6.7271496618650581E+03   3.2651998533901025E+00   2.5841194263696978E+06
   1.0700000000000000E+04   1.6191529541858995E+03   2.1335084839397286E+03   6.7161260348557071E+03   3.2759893278701036E+00   2.5982655512478878E+06
   1.0800000000000000E+04   1.6352245501856339E+03   2.1631838381890011E+03   6.6999319817797832E+03   3.2867856535998761E+00   2.6123238586178012E+06
   1.0900000000000000E+04   1.6507552146433350E+03   2.1929367030787839E+03   6.6767342212958192E+03   3.2975884685363530E+00   2.6263000451688333E+06
   1.1000000000000000E+04   1.6661537455165162E+03   2.2227584341065117E+03   6.6536580921491668E+03   3.3083974057140848E+00   2.6401995635272753E+06
   1.1100000000000000E+04   1.6814339441081570E+03   2.2526404840991449E+03   6.6309923095353433E+03   3.3192120936941305E+00   2.6540277564128865E+06
   1.1200000000000000E+04   1.6966010612351229E+03   2.2825744147636069E+03   6.6088639545071510E+03   3.3300321570284375E+00   2.6677898530135546E+06
   1.1300000000000000E+04   1.7116554205866405E+03   2.3125519073481023E+03   6.5873109508987336E+03   3.3408572167087338E+00   2.6814908792262110E+06
   1.1400000000000000E+04   1.7265917188274616E+03   2.3425647724327682E+03   6.5662822638521184E+03   3.3516868906154271E+00   2.6951358254569247E+06
   1.1500000000000000E+04   1.7414225021418997E+03   2.3726049588738060E+03   6.5459798826937913E+03   3.3625207939045927E+00   2.7087294423231706E+06
   1.1600000000000000E+04   1.7561249893910538E+03   2.4026645619232954E+03   6.5260959384004227E+03   3.3733585393639776E+00   2.7222763513546353E+06
   1.1700000000000000E+04   1.7707040448437444E+03   2.4327358305402649E+03   6.5067195688223483E+03   3.3841997378928772E+00   2.7357810716645517E+06
   1.1800000000000000E+04   1.7851968126915579E+03   2.4628111739351939E+03   6.4883551905557460E+03   3.3950439987962153E+00   2.7492479293352044E+06
   1.1900000000000000E+04   1.7997023289028741E+03   2.4928831673591885E+03   6.4722614836991779E+03   3.4058909301870335E+00   2.7626811721633044E+06
   1.2000000000000000E+04   1.8140817324460320E+03   2.5229445571770452E+03   6.4565773143566348E+03   3.4167401392960448E+00   2.7760848493961995E+06
   1.2100000000000000E+04   1.8283480732187274E+03   2.5529882652468000E+03   6.4414743027849909E+03   3.4275912327967148E+00   2.7894628379722503E+06
   1.2200000000000000E+04   1.8423165930297262E+03   2.5830073926330551E+03   6.4247016189681590E+03   3.4384438171612870E+00   2.8028189904129305E+06
   1.2300000000000000E+04   1.8548035666582393E+03   2.6129952226970031E+03   6.3923057186368624E+03   3.4492974988774732E+00   2.8161568328888393E+06
   1.2400000000000000E+04   1.8684776192572872E+03   2.6429452235681124E+03   6.3763596716926450E+03   3.4601518848509314E+00   2.8294799546852931E+06
   1.2500000000000000E+04   1.8822723041382826E+03   2.6728510500623211E+03   6.3637348342054111E+03   3.4710065825600469E+00   2.8427916446074336E+06
   1.2600000000000000E+04   1.8956977244361481E+03   2.7027065450418327E+03   6.3487715579231644E+03   3.4818612003964771E+00   2.8560951623033937E+06
   1.2700000000000000E+04   1.9090003908205881E+03   2.7325057402724601E+03   6.3343298614534178E+03   3.4927153478818656E+00   2.8693935545120533E+06
   1.2800000000000000E+04   1.9221684483135150E+03   2.7622428567955208E+03   6.3202687908394546E+03   3.5035686359154981E+00   2.8826897452989649E+06
   1.2900000000000000E+04   1.9350851203194125E+03   2.7919123048531615E+03   6.3053414456007249E+03   3.5144206769600648E+00   2.8959865355244116E+06
   1.3000000000000000E+04   1.9477010504521563E+03   2.8215086833800601E+03   6.2890906641149049E+03   3.5252710853202815E+00   2.9092866337355832E+06
   1.3100000000000000E+04   1.9604260638260514E+03   2.8510267791133870E+03   6.2757946524180161E+03   3.5361194772976754E+00   2.9225924994890378E+06
   1.3200000000000000E+04   1.9713875140881762E+03   2.8804615653354945E+03   6.2464723934446674E+03   3.5469654713608700E+00   2.9359065611785008E+06
   1.3300000000000000E+04   1.9843585502426595E+03   2.9098082002638384E+03   6.2392403321213769E+03   3.5578086884241960E+00   2.9492311546217799E+06
