#Te   kappa_tot   kappa_e_ph  kappa_e_e mu Ce
#[K]  [W/(K*m)]   [W/(K*m)]   [W/(K*m)]   [eV]  [J/(m^3*K)]
   3.0000000000000000E+02   5.4658082939525009E+01   5.5007667444613901E+01   8.6005346510795935E+03  -4.2627553974749723E+00   6.2842086191292561E+04
   4.0000000000000000E+02   7.4112846722713201E+01   7.4739738602126337E+01   8.8359332334955179E+03  -4.2637450925501037E+00   8.4521739336457278E+04
   5.0000000000000000E+02   9.3329959724242102E+01   9.4323435119573205E+01   8.8610170338722946E+03  -4.2649906691294168E+00   1.0508247479681106E+05
   6.0000000000000000E+02   1.1225316374108077E+02   1.1370549252159881E+02   8.7885067358745564E+03  -4.2664726926359684E+00   1.2509483605224089E+05
   7.0000000000000000E+02   1.3101057171205434E+02   1.3301978068632289E+02   8.6735614562301071E+03  -4.2681492338496341E+00   1.4498534709006216E+05
   8.0000000000000000E+02   1.4981830656471354E+02   1.5248593925419061E+02   8.5638421226840437E+03  -4.2699422491859282E+00   1.6499847219797320E+05
   9.0000000000000000E+02   1.6885874433136425E+02   1.7230562963896148E+02   8.4410444983276884E+03  -4.2717567277705628E+00   1.8526557509361467E+05
   1.0000000000000000E+03   1.8825863579784348E+02   1.9261694759794852E+02   8.3201490507082490E+03  -4.2734988869879373E+00   2.0585766457808812E+05
   1.1000000000000000E+03   2.0807682465357695E+02   2.1349056281268059E+02   8.2055018358927446E+03  -4.2750900154646780E+00   2.2681503185852710E+05
   1.2000000000000000E+03   2.2832131747706714E+02   2.3494597534274220E+02   8.0975011410227980E+03  -4.2764751181033702E+00   2.4816318880815830E+05
   1.3000000000000000E+03   2.4897175890394465E+02   2.5697312726399099E+02   7.9960137575258968E+03  -4.2776259001503671E+00   2.6992170211324451E+05
   1.4000000000000000E+03   2.6999795267169759E+02   2.7955124727473947E+02   7.9007575467175629E+03  -4.2785387143555491E+00   2.9210910857998685E+05
   1.5000000000000000E+03   2.9137234142538165E+02   3.0266182577319051E+02   7.8114537492344652E+03  -4.2792291591750722E+00   3.1474539447079302E+05
   1.6000000000000000E+03   3.1307660101681876E+02   3.2629569831533917E+02   7.7278762572093165E+03  -4.2797253711605387E+00   3.3785288356677967E+05
   1.7000000000000000E+03   3.3510379155344640E+02   3.5045557847682591E+02   7.6498582024865609E+03  -4.2800616819637431E+00   3.6145613546229521E+05
   1.8000000000000000E+03   3.5745769116462100E+02   3.7515562538134037E+02   7.5772834294720324E+03  -4.2802735956269764E+00   3.8558129835049249E+05
   1.9000000000000000E+03   3.8015062706369162E+02   4.0041935989332001E+02   7.5100733741665335E+03  -4.2803943744605739E+00   4.1025519808682671E+05
   2.0000000000000000E+03   4.0320070861025249E+02   4.2627684984764517E+02   7.4481745520004752E+03  -4.2804530872744015E+00   4.3550433630149567E+05
   2.1000000000000000E+03   4.2628421655374729E+02   4.5276174569952184E+02   7.2893956603132701E+03  -4.2804737813676015E+00   4.6135388361392799E+05
   2.2000000000000000E+03   4.4969573726561140E+02   4.7990850618300482E+02   7.1430993332015132E+03  -4.2804754119150816E+00   4.8782672313311324E+05
   2.3000000000000000E+03   4.7344999153370594E+02   5.0774999591502677E+02   7.0085772758129260E+03  -4.2804722190987867E+00   5.1494258383731835E+05
   2.4000000000000000E+03   4.9755860803100080E+02   5.3631553773723226E+02   6.8851793587516895E+03  -4.2804743261875808E+00   5.4271729206365789E+05
   2.5000000000000000E+03   5.2202903454849638E+02   5.6562944062172392E+02   6.7722990997846673E+03  -4.2804884088616362E+00   5.7116216961781448E+05
   2.6000000000000000E+03   5.4686389617584928E+02   5.9570998553892548E+02   6.6693626435719152E+03  -4.2805183474777211E+00   6.0028359172240016E+05
   2.7000000000000000E+03   5.7206073816737216E+02   6.2656882827706568E+02   6.5758206845170716E+03  -4.2805658159779165E+00   6.3008271303774824E+05
   2.8000000000000000E+03   5.9761208217312219E+02   6.5821076524646128E+02   6.4911428100120238E+03  -4.2806307891626432E+00   6.6055535781415342E+05
   2.9000000000000000E+03   6.2352497414317907E+02   6.9063380238835418E+02   6.4168520750109246E+03  -4.2807119652779448E+00   6.9169206087204220E+05
   3.0000000000000000E+03   6.4974532168476651E+02   7.2382946668104375E+02   6.3482518384631621E+03  -4.2808071101433240E+00   7.2347824081413192E+05
   3.1000000000000000E+03   6.7600931455511932E+02   7.5778330242667994E+02   6.2644440388473640E+03  -4.2809133322646815E+00   7.5589448676306650E+05
   3.2000000000000000E+03   7.0252054030319698E+02   7.9247549953499015E+02   6.1889896995651106E+03  -4.2810272998704404E+00   7.8891692847493512E+05
   3.3000000000000000E+03   7.2903827772740294E+02   8.2788160718005236E+02   6.1062024559772854E+03  -4.2811454098623329E+00   8.2251767531096551E+05
   3.4000000000000000E+03   7.5594497348954974E+02   8.6397329301298510E+02   6.0457875394488146E+03  -4.2812639180833152E+00   8.5666529331264447E+05
   3.5000000000000000E+03   7.8301379913533310E+02   9.0071911480079223E+02   5.9918746408914058E+03  -4.2813790384541894E+00   8.9132530827295384E+05
   3.6000000000000000E+03   8.1021494900243704E+02   9.3808527782522708E+02   5.9439177370570778E+03  -4.2814870175626547E+00   9.2646071464013623E+05
   3.7000000000000000E+03   8.3751861251979005E+02   9.7603635724576941E+02   5.9013999780782815E+03  -4.2815841899635600E+00   9.6203247290330427E+05
   3.8000000000000000E+03   8.6489561951479095E+02   1.0145359698219939E+03   5.8638443062839769E+03  -4.2816670180186414E+00   9.9799999823481066E+05
   3.9000000000000000E+03   8.9231738205723423E+02   1.0535473840874681E+03   5.8307922334820150E+03  -4.2817321201881953E+00   1.0343216126378356E+06
   4.0000000000000000E+03   9.1975692905687538E+02   1.0930340618103901E+03   5.8018368383054567E+03  -4.2817762897730312E+00   1.0709549724688253E+06
   4.1000000000000000E+03   9.4700293008895994E+02   1.1329601270150174E+03   5.7696963478310990E+03  -4.2817965067359447E+00   1.1078574538645807E+06
   4.2000000000000000E+03   9.7419668451472387E+02   1.1732907613874931E+03   5.7410847558558671E+03  -4.2817899437176647E+00   1.1449865049031982E+06
   4.3000000000000000E+03   1.0013163035826950E+03   1.2139925271922475E+03   5.7156859816019214E+03  -4.2817539679089345E+00   1.1822999556534267E+06
   4.4000000000000000E+03   1.0283404607701702E+03   1.2550336204606165E+03   5.6931662751044914E+03  -4.2816861396201569E+00   1.2197562888760981E+06
   4.5000000000000000E+03   1.0552396300170544E+03   1.2963840585552480E+03   5.6729315398351746E+03  -4.2815842084320357E+00   1.2573148748569193E+06
   4.6000000000000000E+03   1.0819280064871009E+03   1.3380158071307196E+03   5.6528923721429210E+03  -4.2814461074320702E+00   1.2949361662175315E+06
   4.7000000000000000E+03   1.1089110639803966E+03   1.3799028521890336E+03   5.6466269702328746E+03  -4.2812699461258594E+00   1.3325818645691704E+06
   4.8000000000000000E+03   1.1354233632218302E+03   1.4220212233322786E+03   5.6336642546686444E+03  -4.2810540025911523E+00   1.3702150467612199E+06
   4.9000000000000000E+03   1.1617093917470872E+03   1.4643489743724024E+03   5.6210358921547640E+03  -4.2807967147274120E+00   1.4078002733943085E+06
   5.0000000000000000E+03   1.1877737831443967E+03   1.5068661276337155E+03   5.6090849938004603E+03  -4.2804966714633039E+00   1.4453036592761027E+06
   5.1000000000000000E+03   1.2134798431457739E+03   1.5495545879405413E+03   5.5950448150103848E+03  -4.2801526036486806E+00   1.4826929290172765E+06
   5.2000000000000000E+03   1.2389505660225332E+03   1.5923980321295685E+03   5.5818831153895972E+03  -4.2797633749885913E+00   1.5199374472994939E+06
   5.3000000000000000E+03   1.2641636623573281E+03   1.6353817795345165E+03   5.5692061462129568E+03  -4.2793279731246070E+00   1.5570082355204581E+06
   5.4000000000000000E+03   1.2891171458386589E+03   1.6784926484790312E+03   5.5570359142930556E+03  -4.2788455009684876E+00   1.5938779660535082E+06
   5.5000000000000000E+03   1.3138059771855105E+03   1.7217188033524953E+03   5.5453133850496060E+03  -4.2783151683514191E+00   1.6305209494027097E+06
   5.6000000000000000E+03   1.3382225480041284E+03   1.7650495963428032E+03   5.5339256904293543E+03  -4.2777362839466804E+00   1.6669131071873289E+06
   5.7000000000000000E+03   1.3623598300972408E+03   1.8084754074846901E+03   5.5227711690867191E+03  -4.2771082477392186E+00   1.7030319365541616E+06
   5.8000000000000000E+03   1.3862113342523789E+03   1.8519874860819086E+03   5.5117593161787790E+03  -4.2764305437686785E+00   1.7388564660240284E+06
   5.9000000000000000E+03   1.4097710326515505E+03   1.8955777962098080E+03   5.5008099262775895E+03  -4.2757027333982878E+00   1.7743672094938261E+06
   6.0000000000000000E+03   1.4330332859632595E+03   1.9392388684869056E+03   5.4898522337920849E+03  -4.2749244490254839E+00   1.8095461076036326E+06
   6.1000000000000000E+03   1.4558677738522888E+03   1.9829636598646623E+03   5.4770544899479328E+03  -4.2740953880870238E+00   1.8443764774854078E+06
   6.2000000000000000E+03   1.4783861414614635E+03   2.0267454229217867E+03   5.4641408412721876E+03  -4.2732153076951365E+00   1.8788429511976794E+06
   6.3000000000000000E+03   1.5005835188394753E+03   2.0705775856351092E+03   5.4510648101122943E+03  -4.2722840195891756E+00   1.9129314105812141E+06
   6.4000000000000000E+03   1.5224552271782045E+03   2.1144536423422587E+03   5.4377865175836214E+03  -4.2713013853607658E+00   1.9466289401345160E+06
   6.5000000000000000E+03   1.5439967464545382E+03   2.1583670564466975E+03   5.4242720694801947E+03  -4.2702673123099464E+00   1.9799237516775187E+06
   6.6000000000000000E+03   1.5652036904068316E+03   2.2023111749229538E+03   5.4104929893134577E+03  -4.2691817494065170E+00   2.0128051411280709E+06
   6.7000000000000000E+03   1.5860717883939139E+03   2.2462791547445872E+03   5.3964256955977917E+03  -4.2680446838193040E+00   2.0452634120965928E+06
   6.8000000000000000E+03   1.6058809616326607E+03   2.2902639008953934E+03   5.3740252489703453E+03  -4.2668561375085430E+00   2.0772898353994512E+06
   6.9000000000000000E+03   1.6260395620754732E+03   2.3342580157408506E+03   5.3593575005598186E+03  -4.2656161642810151E+00   2.1088765938890758E+06
   7.0000000000000000E+03   1.6456334082109377E+03   2.3782537592447006E+03   5.3421036337495434E+03  -4.2643248471291679E+00   2.1400167155248099E+06
   7.1000000000000000E+03   1.6646982123574837E+03   2.4222430194061531E+03   5.3228582478313465E+03  -4.2629822956753785E+00   2.1707040407516840E+06
   7.2000000000000000E+03   1.6839598223786793E+03   2.4662172923577928E+03   5.3090075748294776E+03  -4.2615886439633259E+00   2.2009331661054655E+06
   7.3000000000000000E+03   1.7025730706274044E+03   2.5101676713879906E+03   5.2919421155610917E+03  -4.2601440484596873E+00   2.2306993942406252E+06
   7.4000000000000000E+03   1.7208155344487441E+03   2.5540848440901586E+03   5.2745358855251916E+03  -4.2586486860873940E+00   2.2599987084296201E+06
   7.5000000000000000E+03   1.7386838429464055E+03   2.5979590970363661E+03   5.2567899344857178E+03  -4.2571027527006171E+00   2.2888277123029344E+06
   7.6000000000000000E+03   1.7561750223400604E+03   2.6417803270288900E+03   5.2387091634095659E+03  -4.2555064614861209E+00   2.3171836016739174E+06
   7.7000000000000000E+03   1.7732834343628906E+03   2.6855380582752337E+03   5.2202751581209286E+03  -4.2538600415749812E+00   2.3450641272933288E+06
   7.8000000000000000E+03   1.7900143910791810E+03   2.7292214647408505E+03   5.2015639951282683E+03  -4.2521637368436069E+00   2.3724675650721430E+06
   7.9000000000000000E+03   1.8063530283955797E+03   2.7728193969103299E+03   5.1824780230068973E+03  -4.2504178047778618E+00   2.3993926680483315E+06
   8.0000000000000000E+03   1.8223179793917693E+03   2.8163204122533289E+03   5.1631979493274284E+03  -4.2486225153792638E+00   2.4258386639648029E+06
   8.1000000000000000E+03   1.8378193829675579E+03   2.8597128088170189E+03   5.1430369320516065E+03  -4.2467781503025472E+00   2.4518052015444674E+06
   8.2000000000000000E+03   1.8529274741318202E+03   2.9029846612383053E+03   5.1225972278843419E+03  -4.2448850020143070E+00   2.4772923338261661E+06
   8.3000000000000000E+03   1.8676430452202997E+03   2.9461238585626688E+03   5.1019060021565983E+03  -4.2429433729094965E+00   2.5023005024766242E+06
   8.4000000000000000E+03   1.8819810285246631E+03   2.9891181434811006E+03   5.0810902841710240E+03  -4.2409535747225027E+00   2.5268305015990864E+06
   8.5000000000000000E+03   1.8958780801978144E+03   3.0319551522937059E+03   5.0597071752991760E+03  -4.2389159277908881E+00   2.5508834613914364E+06
   8.6000000000000000E+03   1.9094287900544068E+03   3.0746224552982394E+03   5.0384522417272910E+03  -4.2368307605085249E+00   2.5744608346147053E+06
   8.7000000000000000E+03   1.9225598324289699E+03   3.1171075970893021E+03   5.0168155990205460E+03  -4.2346984087365938E+00   2.5975643626216110E+06
   8.8000000000000000E+03   1.9352919773092055E+03   3.1593981364596302E+03   4.9949571946109400E+03  -4.2325192152987752E+00   2.6201960712684914E+06
   8.9000000000000000E+03   1.9474279518376111E+03   3.2014816855701256E+03   4.9716010997542171E+03  -4.2302935295394981E+00   2.6423582503902037E+06
   9.0000000000000000E+03   1.9594844482933436E+03   3.2433459480402857E+03   4.9501335984238494E+03  -4.2280217068191268E+00   2.6640534333712431E+06
   9.1000000000000000E+03   1.9711283661996465E+03   3.2849787558049584E+03   4.9283501829120250E+03  -4.2257041081353215E+00   2.6852843944319799E+06
   9.2000000000000000E+03   1.9821908112701558E+03   3.3263681044870682E+03   4.9052281457877507E+03  -4.2233410997864942E+00   2.7060541173606301E+06
   9.3000000000000000E+03   1.9929140252967270E+03   3.3675021870318806E+03   4.8822931300977507E+03  -4.2209330529300653E+00   2.7263657991223866E+06
   9.4000000000000000E+03   2.0032066149886066E+03   3.4083694255758023E+03   4.8589872491609603E+03  -4.2184803432669682E+00   2.7462228236929281E+06
   9.5000000000000000E+03   2.0131458213939409E+03   3.4489585013818146E+03   4.8357675705138281E+03  -4.2159833507471296E+00   2.7656287638875451E+06
   9.6000000000000000E+03   2.0226986820119012E+03   3.4892583827072831E+03   4.8124316579505912E+03  -4.2134424592119109E+00   2.7845873554975917E+06
   9.7000000000000000E+03   2.0318322406423324E+03   3.5292583506305364E+03   4.7887911493835209E+03  -4.2108580561416664E+00   2.8031025011009425E+06
   9.8000000000000000E+03   2.0405789748619563E+03   3.5689480227231538E+03   4.7650273392643421E+03  -4.2082305323717968E+00   2.8211782579732705E+06
   9.9000000000000000E+03   2.0488624285014544E+03   3.6083173745759436E+03   4.7407242623375714E+03  -4.2055602818298006E+00   2.8388188036070885E+06
   1.0000000000000000E+04   2.0567630217871438E+03   3.6473567591480041E+03   4.7163196567893165E+03  -4.2028477012407910E+00   2.8560284751982656E+06
   1.0100000000000000E+04   2.0642237434276017E+03   3.6860569240304931E+03   4.6915097762280238E+03  -4.2000931899381868E+00   2.8728117055381243E+06
   1.0200000000000000E+04   2.0713138331672071E+03   3.7244090265673844E+03   4.6666519677154183E+03  -4.1972971496218108E+00   2.8891730561577021E+06
   1.0300000000000000E+04   2.0780379763350484E+03   3.7624046468923057E+03   4.6417563795625420E+03  -4.1944599840949550E+00   2.9051171955332500E+06
   1.0400000000000000E+04   2.0844010919915713E+03   3.8000357989646664E+03   4.6168329054987043E+03  -4.1915820990330097E+00   2.9206488912239335E+06
   1.0500000000000000E+04   2.0904082991101459E+03   3.8372949397233206E+03   4.5918910830501081E+03  -4.1886639018782619E+00   2.9357729925352978E+06
   1.0600000000000000E+04   2.0960649192003634E+03   3.8741749762354484E+03   4.5669401769604819E+03  -4.1857058015244144E+00   2.9504944387502274E+06
   1.0700000000000000E+04   2.1013764576494709E+03   3.9106692711224064E+03   4.5419891566450233E+03  -4.1827082081482709E+00   2.9648182529275673E+06
   1.0800000000000000E+04   2.1063485912589567E+03   3.9467716462738763E+03   4.5170467053741504E+03  -4.1796715330625247E+00   2.9787495218290719E+06
   1.0900000000000000E+04   2.1109871529910611E+03   3.9824763848752928E+03   4.4921212168011407E+03  -4.1765961884843428E+00   2.9922933921201658E+06
   1.1000000000000000E+04   2.1152981186550574E+03   4.0177782319236003E+03   4.4672208008313582E+03  -4.1734825873671255E+00   3.0054550894452198E+06
   1.1100000000000000E+04   2.1192311884298229E+03   4.0526723932925333E+03   4.4421054598161027E+03  -4.1703311432427119E+00   3.0182398656841354E+06
   1.1200000000000000E+04   2.1213676010758782E+03   4.0871545334340549E+03   4.4106291811678475E+03  -4.1671422700636489E+00   3.0306530402625436E+06
   1.1300000000000000E+04   2.1238754417784235E+03   4.1212207717780620E+03   4.3822965692808502E+03  -4.1639163819928235E+00   3.0426999574148194E+06
   1.1400000000000000E+04   2.1268662650508322E+03   4.1548676780032956E+03   4.3574170331716778E+03  -4.1606538932772592E+00   3.0543860273039211E+06
   1.1500000000000000E+04   2.1302702983957224E+03   4.1880922662280900E+03   4.3355395661775292E+03  -4.1573552181324311E+00   3.0657166540002325E+06
   1.1600000000000000E+04   2.1326836378732028E+03   4.2208919881558722E+03   4.3107898113478905E+03  -4.1540207705424343E+00   3.0766972810157435E+06
   1.1700000000000000E+04   2.1348118306242045E+03   4.2532647253317518E+03   4.2861089227420916E+03  -4.1506509640916995E+00   3.0873333964879308E+06
   1.1800000000000000E+04   2.1366648908824945E+03   4.2852087806634081E+03   4.2615164601913384E+03  -4.1472462119439690E+00   3.0976304871037584E+06
   1.1900000000000000E+04   2.1382615714975841E+03   4.3167228690568127E+03   4.2370652331765941E+03  -4.1438069265688293E+00   3.1075940493717035E+06
   1.2000000000000000E+04   2.1396045981583161E+03   4.3478061075596006E+03   4.2127432211372625E+03  -4.1403335197522555E+00   3.1172295895968326E+06
   1.2100000000000000E+04   2.1406326184917607E+03   4.3784580047655809E+03   4.1882937253222844E+03  -4.1368264023336456E+00   3.1265426336551239E+06
   1.2200000000000000E+04   2.1414335895346835E+03   4.4086784498653233E+03   4.1640372785418976E+03  -4.1332859842058411E+00   3.1355386960866028E+06
   1.2300000000000000E+04   2.1420386457501063E+03   4.4384677011398053E+03   4.1400666488874904E+03  -4.1297126741047796E+00   3.1442233134356043E+06
   1.2400000000000000E+04   2.1423820753843193E+03   4.4678263742121262E+03   4.1161128412605940E+03  -4.1261068796199956E+00   3.1526019595629815E+06
   1.2500000000000000E+04   2.1424624029254546E+03   4.4967554298322812E+03   4.0921539219883339E+03  -4.1224690069211931E+00   3.1606801664425139E+06
   1.2600000000000000E+04   2.1423307722944887E+03   4.5252561616140765E+03   4.0683588210494650E+03  -4.1187994608318510E+00   3.1684634102635174E+06
   1.2700000000000000E+04   2.1419908155232124E+03   4.5533301833984715E+03   4.0447195292457445E+03  -4.1150986445768041E+00   3.1759571815823466E+06
   1.2800000000000000E+04   2.1414382275436287E+03   4.5809794166580132E+03   4.0212005791069346E+03  -4.1113669598453582E+00   3.1831669166092332E+06
   1.2900000000000000E+04   2.1407034683173674E+03   4.6082060776320677E+03   3.9978894838323558E+03  -4.1076048065283510E+00   3.1900980711083217E+06
   1.3000000000000000E+04   2.1397320759888757E+03   4.6350126646131712E+03   3.9745771743270416E+03  -4.1038125828022975E+00   3.1967560342506515E+06
   1.3100000000000000E+04   2.1385605225012964E+03   4.6614019450655715E+03   3.9513740697564645E+03  -4.0999906849085113E+00   3.2031462214894718E+06
   1.3200000000000000E+04   2.1371668697494483E+03   4.6873769429049917E+03   3.9281888240714347E+03  -4.0961395071531079E+00   3.2092739754682672E+06
   1.3300000000000000E+04   2.1354169030542043E+03   4.7129409258071501E+03   3.9045586490074611E+03  -4.0922594418228924E+00   3.2151446338721262E+06
