#Te   kappa_tot   kappa_e_ph  kappa_e_e mu Ce
#[K]  [W/(K*m)]   [W/(K*m)]   [W/(K*m)]   [eV]  [J/(m^3*K)]
   3.0000000000000000E+02   5.9287636435385096E+01   5.9874731639507914E+01   6.0464321564561378E+03   1.3142190292122049E+00   8.6934582200125646E+04
   4.0000000000000000E+02   8.0710573723462772E+01   8.1817477380298996E+01   5.9657726299728592E+03   1.3114635916132544E+00   1.1673009975776181E+05
   5.0000000000000000E+02   1.0234715309538974E+02   1.0416037217606686E+02   5.8793323273411133E+03   1.3104689624054888E+00   1.4742968553340362E+05
   6.0000000000000000E+02   1.2283103306656380E+02   1.2550272852458964E+02   5.7699801641084805E+03   1.3104210336417454E+00   1.7693243676597331E+05
   7.0000000000000000E+02   1.4136944436848597E+02   1.4498353074578031E+02   5.6712095518471178E+03   1.3108956512461558E+00   2.0403306827024999E+05
   8.0000000000000000E+02   1.5771686179686643E+02   1.6233848462556989E+02   5.5399406859833498E+03   1.3116649447527033E+00   2.2834040043582339E+05
   9.0000000000000000E+02   1.7201989220201847E+02   1.7768212387585424E+02   5.3980235278230311E+03   1.3126019398337243E+00   2.5000676390150728E+05
   1.0000000000000000E+03   1.8456872053160345E+02   1.9130886967288450E+02   5.2387020764291856E+03   1.3136351992676334E+00   2.6946494832286506E+05
   1.1000000000000000E+03   1.9572153089420743E+02   2.0357430734428505E+02   5.0738583146292776E+03   1.3147251107099498E+00   2.8724458662826824E+05
   1.2000000000000000E+03   2.0582749044938421E+02   2.1483602624208135E+02   4.9085846087632090E+03   1.3158504099883181E+00   3.0386950100901630E+05
   1.3000000000000000E+03   2.1520683258844332E+02   2.2542706816799981E+02   4.7468030401545348E+03   1.3170001147691632E+00   3.1981119078951556E+05
   1.4000000000000000E+03   2.2414137227576296E+02   2.3564511985445617E+02   4.5913577443312106E+03   1.3181685820460298E+00   3.3547372965173895E+05
   1.5000000000000000E+03   2.3287166471742574E+02   2.4574891394185559E+02   4.4441136219970231E+03   1.3193524825079805E+00   3.5119334032945568E+05
   1.6000000000000000E+03   2.4159767654907111E+02   2.5595792848727436E+02   4.3062504114099875E+03   1.3205489956852805E+00   3.6724341651968443E+05
   1.7000000000000000E+03   2.5048071706716516E+02   2.6645368495720220E+02   4.1784038215526434E+03   1.3217547964678671E+00   3.8384070589488710E+05
   1.8000000000000000E+03   2.5958076108309336E+02   2.7738191051634800E+02   4.0448515817751704E+03   1.3229655554664064E+00   4.0115107568346418E+05
   1.9000000000000000E+03   2.6911354324256115E+02   2.8885522311526290E+02   3.9376007045964939E+03   1.3241757689485227E+00   4.1929454530164332E+05
   2.0000000000000000E+03   2.7908161478862587E+02   3.0095614781214289E+02   3.8396855202202132E+03   1.3253787943407345E+00   4.3834974804457830E+05
   2.1000000000000000E+03   2.8921639428059513E+02   3.1374032898890260E+02   3.7000117546325159E+03   1.3265670074936582E+00   4.5835808510638378E+05
   2.2000000000000000E+03   2.9982574057610935E+02   3.2723982770242213E+02   3.5789965660648891E+03   1.3277320250344893E+00   4.7932778507853491E+05
   2.3000000000000000E+03   3.1083868455095876E+02   3.4146640943476848E+02   3.4655192290547848E+03   1.3288649539128665E+00   5.0123799336258270E+05
   2.4000000000000000E+03   3.2225652207080924E+02   3.5641474235142169E+02   3.3624988170160409E+03   1.3299566427508724E+00   5.2404292678979796E+05
   2.5000000000000000E+03   3.3417771334082971E+02   3.7206544096142699E+02   3.2816953161910687E+03   1.3309979187360856E+00   5.4767606895734847E+05
   2.6000000000000000E+03   3.4622890855985361E+02   3.8838790473182559E+02   3.1896186475746099E+03   1.3319797997299554E+00   5.7205433646431647E+05
   2.7000000000000000E+03   3.5882447433640141E+02   4.0534291496504397E+02   3.1266516336912896E+03   1.3328936758899514E+00   5.9708213005795574E+05
   2.8000000000000000E+03   3.7160144289293027E+02   4.2288496593017970E+02   3.0642329974725317E+03   1.3337314581148378E+00   6.2265517829526821E+05
   2.9000000000000000E+03   3.8455699529051088E+02   4.4096431752810435E+02   3.0062748283754217E+03   1.3344856929737452E+00   6.4866409051327198E+05
   3.0000000000000000E+03   3.9746038857561172E+02   4.5952876663730382E+02   2.9426333964744058E+03   1.3351496454595948E+00   6.7499755117423530E+05
   3.1000000000000000E+03   4.1061038138769294E+02   4.7852514269873183E+02   2.8931470501272179E+03   1.3357173519731784E+00   7.0154510748256580E+05
   3.2000000000000000E+03   4.2364570481415882E+02   4.9790053998117224E+02   2.8406692266334458E+03   1.3361836467709887E+00   7.2819952262376994E+05
   3.3000000000000000E+03   4.3662955933547056E+02   5.1760330436711422E+02   2.7910392758551307E+03   1.3365441655018020E+00   7.5485868829697825E+05
   3.4000000000000000E+03   4.4967489729023805E+02   5.3758379641810120E+02   2.7498687941433450E+03   1.3367953296003405E+00   7.8142710685403366E+05
   3.5000000000000000E+03   4.6241408448956565E+02   5.5779495497666494E+02   2.7042345296410326E+03   1.3369343153876674E+00   8.0781696934894705E+05
   3.6000000000000000E+03   4.7487416820491080E+02   5.7819268681907556E+02   2.6574981416519108E+03   1.3369590113766228E+00   8.3394886528744106E+05
   3.7000000000000000E+03   4.8750213752948099E+02   5.9873610797439187E+02   2.6240646745425274E+03   1.3368679671038193E+00   8.5975216824745678E+05
   3.8000000000000000E+03   4.9997220554366993E+02   6.1938766152872267E+02   2.5932708012253793E+03   1.3366603364034839E+00   8.8516514471670659E+05
   3.9000000000000000E+03   5.1222418325193917E+02   6.4011313522085425E+02   2.5637979108393624E+03   1.3363358176178648E+00   9.1013483396813157E+05
   4.0000000000000000E+03   5.2482968483182685E+02   6.6088160011432535E+02   2.5493965386591885E+03   1.3358945928374746E+00   9.3461674594009842E+05
   4.1000000000000000E+03   5.3629945661874717E+02   6.8166528930379354E+02   2.5148738014768178E+03   1.3353372678247371E+00   9.5857442138328415E+05
   4.2000000000000000E+03   5.4762463840531473E+02   7.0243943312635236E+02   2.4847311347768768E+03   1.3346648139903008E+00   9.8197889181873330E+05
   4.3000000000000000E+03   5.5900661061649726E+02   7.2318206487747113E+02   2.4623873085386813E+03   1.3338785133515252E+00   1.0048080741592378E+06
   4.4000000000000000E+03   5.7028099796666572E+02   7.4387380863965132E+02   2.4437480809699305E+03   1.3329799071637576E+00   1.0270461289187374E+06
   4.5000000000000000E+03   5.8100478372647433E+02   7.6449765862373715E+02   2.4206759911346617E+03   1.3319707486377845E+00   1.0486828060631300E+06
   4.6000000000000000E+03   5.9132240170188652E+02   7.8503875742532034E+02   2.3963438798763727E+03   1.3308529600039158E+00   1.0697127960158968E+06
   4.7000000000000000E+03   6.0147772115109922E+02   8.0548417886066284E+02   2.3748306488126623E+03   1.3296285939490047E+00   1.0901351003865823E+06
   4.8000000000000000E+03   6.1167319928906932E+02   8.2582271954512987E+02   2.3587894304212145E+03   1.3282997993714221E+00   1.1099524362183618E+06
   4.9000000000000000E+03   6.2087272004616739E+02   8.4604470212310412E+02   2.3328216532212314E+03   1.3268687913130182E+00   1.1291706755423925E+06
   5.0000000000000000E+03   6.3046053858081336E+02   8.6614179204113930E+02   2.3169777514338075E+03   1.3253378247884771E+00   1.1477983301012733E+06
   5.1000000000000000E+03   6.3951816578423620E+02   8.8610682891618785E+02   2.2980838077463864E+03   1.3237091723280798E+00   1.1658460797017959E+06
   5.2000000000000000E+03   6.4821712545059199E+02   9.0593367293250947E+02   2.2786341313935677E+03   1.3219851048324180E+00   1.1833263490903943E+06
   5.3000000000000000E+03   6.5650894310870217E+02   9.2561706618564074E+02   2.2581105129672246E+03   1.3201678755287720E+00   1.2002529276697962E+06
   5.4000000000000000E+03   6.6483773917560234E+02   9.4515250855515001E+02   2.2416694573561153E+03   1.3182597066372799E+00   1.2166406358086725E+06
   5.5000000000000000E+03   6.7231140137432044E+02   9.6453614741143883E+02   2.2190750705965324E+03   1.3162627785318148E+00   1.2325050307640992E+06
   5.6000000000000000E+03   6.7995189862265170E+02   9.8376468031650575E+02   2.2017265318783188E+03   1.3141792210180310E+00   1.2478621527903918E+06
   5.7000000000000000E+03   6.8695889868254585E+02   1.0028352697520764E+03   2.1809374665674450E+03   1.3120111065565256E+00   1.2627283070216042E+06
   5.8000000000000000E+03   6.9415825409433205E+02   1.0217454688827154E+03   2.1650815990074216E+03   1.3097604451061355E+00   1.2771198756529435E+06
   5.9000000000000000E+03   7.0097476152037530E+02   1.0404931573392264E+03   2.1482177455226724E+03   1.3074291803770730E+00   1.2910531681164883E+06
   6.0000000000000000E+03   7.0746991415338800E+02   1.0590764860204570E+03   2.1309748184400755E+03   1.3050191873505546E+00   1.3045442851099311E+06
   6.1000000000000000E+03   7.1365157840056429E+02   1.0774938299730832E+03   2.1134301174581874E+03   1.3025322707829190E+00   1.3176090155929765E+06
   6.2000000000000000E+03   7.1931321181919918E+02   1.0957437484400452E+03   2.0938337311754885E+03   1.2999701645939012E+00   1.3302627564817879E+06
   6.3000000000000000E+03   7.2444524864605046E+02   1.1138249512384361E+03   2.0722836562253901E+03   1.2973345319956662E+00   1.3425204405084029E+06
   6.4000000000000000E+03   7.2974071334665723E+02   1.1317362706981414E+03   2.0544357229735397E+03   1.2946269662049030E+00   1.3543964874851736E+06
   6.5000000000000000E+03   7.3518612922153261E+02   1.1494766384561340E+03   2.0398229300942037E+03   1.2918489916232760E+00   1.3659047725482814E+06
   6.6000000000000000E+03   7.4036512712346246E+02   1.1670450664618222E+03   2.0250295111826856E+03   1.2890020654336640E+00   1.3770585960553705E+06
   6.7000000000000000E+03   7.4512008442270178E+02   1.1844406316234220E+03   2.0088987620824760E+03   1.2860875794974798E+00   1.3878706719960880E+06
   6.8000000000000000E+03   7.4875712460385046E+02   1.2016624635850849E+03   1.9866255783211852E+03   1.2831068624575008E+00   1.3983531225846568E+06
   6.9000000000000000E+03   7.5323305627945319E+02   1.2187097351695204E+03   1.9721126753936919E+03   1.2800611820557570E+00   1.4085174772384120E+06
   7.0000000000000000E+03   7.5707640125622117E+02   1.2355816550943518E+03   1.9548995656659515E+03   1.2769517475231089E+00   1.4183746835673614E+06
   7.1000000000000000E+03   7.6125232625601166E+02   1.2522774625955140E+03   1.9414467019457941E+03   1.2737797120882990E+00   1.4279351142534013E+06
   7.2000000000000000E+03   7.6526330270998028E+02   1.2687964236544728E+03   1.9283008430729794E+03   1.2705461755061305E+00   1.4372085873043083E+06
   7.3000000000000000E+03   7.6879181854210276E+02   1.2851378285548465E+03   1.9134522764445201E+03   1.2672521865951905E+00   1.4462043807343843E+06
   7.4000000000000000E+03   7.7243579488885882E+02   1.3013009905335507E+03   1.9006194268222334E+03   1.2638987457469080E+00   1.4549312585610950E+06
   7.5000000000000000E+03   7.7553228446244100E+02   1.3172852453155335E+03   1.8857252463918687E+03   1.2604868074441702E+00   1.4633974879369908E+06
   7.6000000000000000E+03   7.7983823499057905E+02   1.3330899513669285E+03   1.8790624303286902E+03   1.2570172826700119E+00   1.4716108690256765E+06
   7.7000000000000000E+03   7.8174957825454442E+02   1.3487144907041263E+03   1.8596512079352062E+03   1.2534910412924150E+00   1.4795787543521966E+06
   7.8000000000000000E+03   7.8418237594276502E+02   1.3641582701344739E+03   1.8444712688048769E+03   1.2499089143678594E+00   1.4873080755619532E+06
   7.9000000000000000E+03   7.8691486417141959E+02   1.3794207228197681E+03   1.8320268987875008E+03   1.2462716963349549E+00   1.4948053706904578E+06
   8.0000000000000000E+03   7.8930004751032698E+02   1.3945013100626861E+03   1.8187006842049773E+03   1.2425801471602780E+00   1.5020768035284653E+06
   8.1000000000000000E+03   7.9207161856282494E+02   1.4093995232431691E+03   1.8083507210887235E+03   1.2388349943719077E+00   1.5091281922204285E+06
   8.2000000000000000E+03   7.9428194332765509E+02   1.4241148858370420E+03   1.7959504222464975E+03   1.2350369349925867E+00   1.5159650351218174E+06
   8.3000000000000000E+03   7.9621929909279334E+02   1.4386469554599807E+03   1.7830466343802834E+03   1.2311866373988141E+00   1.5225925252318338E+06
   8.4000000000000000E+03   7.9946164331416867E+02   1.4529953258938606E+03   1.7774355965581994E+03   1.2272847430795768E+00   1.5290155789709266E+06
   8.5000000000000000E+03   8.0132111224263690E+02   1.4671596290590883E+03   1.7656923654947007E+03   1.2233318682827616E+00   1.5352388565546253E+06
   8.6000000000000000E+03   8.0241943308802911E+02   1.4811395368998687E+03   1.7510828703151888E+03   1.2193286056042290E+00   1.5412667827590199E+06
   8.7000000000000000E+03   8.0357071752778302E+02   1.4949347631626322E+03   1.7375589718275480E+03   1.2152755254645691E+00   1.5471035578409163E+06
   8.8000000000000000E+03   8.0593951433126585E+02   1.5085450650470893E+03   1.7304105779298366E+03   1.2111731775141721E+00   1.5527531858543395E+06
   8.9000000000000000E+03   8.0676878214156125E+02   1.5219702447183104E+03   1.7168282575419375E+03   1.2070220919212109E+00   1.5582194873273484E+06
   9.0000000000000000E+03   8.0810915598758402E+02   1.5352101506662802E+03   1.7062517974779068E+03   1.2028227806357286E+00   1.5635061153175628E+06
   9.1000000000000000E+03   8.0886290677078136E+02   1.5482646789106673E+03   1.6937122898824837E+03   1.1985757385318527E+00   1.5686165694476492E+06
   9.2000000000000000E+03   8.1007856944890636E+02   1.5611337740445049E+03   1.6838189878163264E+03   1.1942814444783281E+00   1.5735542086961847E+06
   9.3000000000000000E+03   8.0954744514364631E+02   1.5738174301149445E+03   1.6670547119810547E+03   1.1899403623827611E+00   1.5783222656882093E+06
   9.4000000000000000E+03   8.1176074986436277E+02   1.5863156913437028E+03   1.6625144920867010E+03   1.1855529420924886E+00   1.5829238655788600E+06
   9.5000000000000000E+03   8.1273235882325741E+02   1.5986286526865233E+03   1.6532171559093970E+03   1.1811196203217369E+00   1.5873620175042597E+06
   9.6000000000000000E+03   8.1356060230670539E+02   1.6107564602372927E+03   1.6438218825695030E+03   1.1766408214449573E+00   1.5916396428885735E+06
   9.7000000000000000E+03   8.1361857718220358E+02   1.6226993114797313E+03   1.6318004483779666E+03   1.1721169582662745E+00   1.5957595835035858E+06
   9.8000000000000000E+03   8.1474358947652252E+02   1.6344574553927382E+03   1.6245470394293102E+03   1.1675484327411316E+00   1.5997245945634460E+06
   9.9000000000000000E+03   8.1484561601805058E+02   1.6460311924150171E+03   1.6136724927090970E+03   1.1629356366310413E+00   1.6035373675078226E+06
   1.0000000000000000E+04   8.1509405574916184E+02   1.6574208742751243E+03   1.6038357948288372E+03   1.1582789521057544E+00   1.6072005392717496E+06
   1.0100000000000000E+04   8.1436605991511681E+02   1.6686269036957103E+03   1.5907004598469534E+03   1.1535787523502170E+00   1.6107166717804044E+06
   1.0200000000000000E+04   8.1414508245418529E+02   1.6796497339752893E+03   1.5799783037077284E+03   1.1488354020472575E+00   1.6140882978855674E+06
   1.0300000000000000E+04   8.1427950216475131E+02   1.6904898684592306E+03   1.5710054359718786E+03   1.1440492578937429E+00   1.6173178910433077E+06
   1.0400000000000000E+04   8.1516479169661818E+02   1.7011478599046256E+03   1.5651719436005460E+03   1.1392206690498152E+00   1.6204078898404138E+06
   1.0500000000000000E+04   8.1516258739283319E+02   1.7116243097477141E+03   1.5563989696216868E+03   1.1343499775642361E+00   1.6233606905777205E+06
   1.0600000000000000E+04   8.1515139898208554E+02   1.7219198672786276E+03   1.5479424327403835E+03   1.1294375187328247E+00   1.6261786652654882E+06
   1.0700000000000000E+04   8.1484789046316632E+02   1.7320352287372732E+03   1.5387753335106181E+03   1.1244836214999052E+00   1.6288641437930265E+06
   1.0800000000000000E+04   8.1430682546860976E+02   1.7419711363281865E+03   1.5291080722583438E+03   1.1194886087498352E+00   1.6314194378580817E+06
   1.0900000000000000E+04   8.1289978203012538E+02   1.7517283771704924E+03   1.5167620834610125E+03   1.1144527976367691E+00   1.6338468239110438E+06
   1.1000000000000000E+04   8.1232947190693437E+02   1.7613077821826689E+03   1.5076869566705905E+03   1.1093764998475091E+00   1.6361485670610368E+06
   1.1100000000000000E+04   8.1203185245530824E+02   1.7707102249151560E+03   1.4998493190265765E+03   1.1042600218834779E+00   1.6383268954901060E+06
   1.1200000000000000E+04   8.1126455693673222E+02   1.7799366203303355E+03   1.4907000503440861E+03   1.0991036652805557E+00   1.6403840288503426E+06
   1.1300000000000000E+04   8.1083224253684944E+02   1.7889879235414626E+03   1.4829634158303529E+03   1.0939077268337061E+00   1.6423221586669083E+06
   1.1400000000000000E+04   8.1015080460519289E+02   1.7978651285155618E+03   1.4746590640419593E+03   1.0886724988120320E+00   1.6441434596394575E+06
   1.1500000000000000E+04   8.0938897007003402E+02   1.8065692667409310E+03   1.4663519155455192E+03   1.0833982691212702E+00   1.6458500938520115E+06
   1.1600000000000000E+04   8.0826268477227768E+02   1.8151014058749679E+03   1.4571139395986797E+03   1.0780853215092971E+00   1.6474441967806406E+06
   1.1700000000000000E+04   8.0790248610205879E+02   1.8234626483645334E+03   1.4506083063025890E+03   1.0727339356999364E+00   1.6489278883008261E+06
   1.1800000000000000E+04   8.0676658691785894E+02   1.8316541300523129E+03   1.4418336536679367E+03   1.0673443875363455E+00   1.6503032763536645E+06
   1.1900000000000000E+04   8.0614120535302891E+02   1.8396770187744276E+03   1.4349182970889576E+03   1.0619169491339393E+00   1.6515724498666709E+06
   1.2000000000000000E+04   8.0509251214032963E+02   1.8475325129492928E+03   1.4268778931708205E+03   1.0564518890094308E+00   1.6527374709324052E+06
   1.2100000000000000E+04   8.0400198829320482E+02   1.8552218401567961E+03   1.4189249238080367E+03   1.0509494721572985E+00   1.6538003996191844E+06
   1.2200000000000000E+04   8.0290931219510310E+02   1.8627462557299991E+03   1.4111758644625252E+03   1.0454099602027165E+00   1.6547632642989263E+06
   1.2300000000000000E+04   8.0166903151259100E+02   1.8701070413388252E+03   1.4031763067833922E+03   1.0398336114636850E+00   1.6556280837310257E+06
   1.2400000000000000E+04   8.0090950465876972E+02   1.8773055035889656E+03   1.3968389165947890E+03   1.0342206810609531E+00   1.6563968590396338E+06
   1.2500000000000000E+04   7.9941338280846753E+02   1.8843429726277336E+03   1.3884486184680793E+03   1.0285714209992582E+00   1.6570715650158974E+06
   1.2600000000000000E+04   7.9796963706575286E+02   1.8912208007612903E+03   1.3804117718871898E+03   1.0228860802342419E+00   1.6576541643722814E+06
   1.2700000000000000E+04   7.9648767050269475E+02   1.8979403610905797E+03   1.3724475956849658E+03   1.0171649047536899E+00   1.6581465991102704E+06
   1.2800000000000000E+04   7.9499909409461407E+02   1.9045030461644667E+03   1.3646442570813483E+03   1.0114081376492203E+00   1.6585507842639249E+06
   1.2900000000000000E+04   7.9269437158583582E+02   1.9109102666491772E+03   1.3546291191761209E+03   1.0056160191640786E+00   1.6588686287019250E+06
   1.3000000000000000E+04   7.9115315304622345E+02   1.9171634500236614E+03   1.3470302291752378E+03   9.9978878676004068E-01   1.6591020048486204E+06
   1.3100000000000000E+04   7.8974648356054490E+02   1.9232640392956121E+03   1.3399801390876419E+03   9.9392667516520816E-01   1.6592527788033613E+06
   1.3200000000000000E+04   7.8905458391421928E+02   1.9292134917469527E+03   1.3351250764734730E+03   9.8802991644091509E-01   1.6593227793689591E+06
   1.3300000000000000E+04   7.8765260697117662E+02   1.9350132776997998E+03   1.3283689179760784E+03   9.8209874001518227E-01   1.6593138256635983E+06
