#Te   kappa_tot   kappa_e_ph  kappa_e_e mu Ce
#[K]  [W/(K*m)]   [W/(K*m)]   [W/(K*m)]   [eV]  [J/(m^3*K)]
   3.0000000000000000E+02   1.5830519661622056E+00   1.5938538519036327E+00   2.3358453648093212E+02   4.0884137988480296E+00   2.8482674631952964E+03
   4.0000000000000000E+02   3.4572062113075170E+00   3.4901000960626480E+00   3.6681577198967898E+02   4.0903510253536703E+00   4.1411290118464867E+03
   5.0000000000000000E+02   5.8066985202180970E+00   5.8803024904103802E+00   4.6390355955392278E+02   4.0925128705825395E+00   5.8113783923998153E+03
   6.0000000000000000E+02   8.4691384291096430E+00   8.6035749665540759E+00   5.4200196436244562E+02   4.0949263783570506E+00   7.8598236928594815E+03
   7.0000000000000000E+02   1.1401358965311104E+01   1.1621670203398509E+01   6.0143474711371050E+02   4.0975677657490417E+00   1.0288721508612613E+04
   8.0000000000000000E+02   1.4590735637809789E+01   1.4928301751397594E+01   6.4525109484794052E+02   4.1003729571114151E+00   1.3077280735071043E+04
   9.0000000000000000E+02   1.8018522693536053E+01   1.8511222138888741E+01   6.7697432855012323E+02   4.1032495840778092E+00   1.6183409477018675E+04
   1.0000000000000000E+03   2.1664129906396724E+01   2.2359024524381624E+01   6.9706801483249046E+02   4.1060896564366169E+00   1.9554933318978809E+04
   1.1000000000000000E+03   2.5524835454056124E+01   2.6474107817855202E+01   7.1185812588000579E+02   4.1087818073300326E+00   2.3140492733267612E+04
   1.2000000000000000E+03   2.9608803573457248E+01   3.0875028150138789E+01   7.2196722497540031E+02   4.1112218100155573E+00   2.6897313245681846E+04
   1.3000000000000000E+03   3.3932995237358384E+01   3.5590984266214562E+01   7.2841778719822844E+02   4.1133203147038193E+00   3.0795402141670140E+04
   1.4000000000000000E+03   3.8513574088598332E+01   4.0655137454994893E+01   7.3113626849608534E+02   4.1150073043499509E+00   3.4818518859053773E+04
   1.5000000000000000E+03   4.3390699047431447E+01   4.6100047199830080E+01   7.3830056589416279E+02   4.1162334204950008E+00   3.8962719176825885E+04
   1.6000000000000000E+03   4.8559120614055018E+01   5.1955379726761315E+01   7.4284896027572631E+02   4.1169688335393175E+00   4.3233516614483524E+04
   1.7000000000000000E+03   5.4021547059056445E+01   5.8246990855836614E+01   7.4467741352156827E+02   4.1172005783473296E+00   4.7642633522937431E+04
   1.8000000000000000E+03   5.9800188272281858E+01   6.4996599961198839E+01   7.4797940336939632E+02   4.1169292350416873E+00   5.2205043499853462E+04
   1.9000000000000000E+03   6.5879202171652281E+01   7.2221648251068558E+01   7.5016870568965021E+02   4.1161656155167883E+00   5.6936650818994742E+04
   2.0000000000000000E+03   7.2239360011577801E+01   7.9935207688927392E+01   7.5033556898950644E+02   4.1149278466502688E+00   6.1852683427564669E+04
   2.1000000000000000E+03   7.8780905745377211E+01   8.8145933902402078E+01   7.4150513956484042E+02   4.1132390113624773E+00   6.6966708511209843E+04
   2.2000000000000000E+03   8.5602299521858484E+01   9.6858090152850153E+01   7.3662308728009452E+02   4.1111253562372667E+00   7.2290115304268838E+04
   2.3000000000000000E+03   9.2634847649675962E+01   1.0607166230448918E+02   7.3126946601175871E+02   4.1086149919096471E+00   7.7831922981056996E+04
   2.4000000000000000E+03   9.9824083140775599E+01   1.1578256726426696E+02   7.2424727382640697E+02   4.1057369844542322E+00   8.3598779868353813E+04
   2.5000000000000000E+03   1.0721007999363809E+02   1.2598294285680386E+02   7.1947691089851025E+02   4.1025207360753839E+00   8.9595071235219686E+04
   2.6000000000000000E+03   1.1472410813726016E+02   1.3666149889087845E+02   7.1468702695972422E+02   4.0989955689497757E+00   9.5823076499136092E+04
   2.7000000000000000E+03   1.2240380108391820E+02   1.4780390662532704E+02   7.1227105558668779E+02   4.0951904456432642E+00   1.0228314105683204E+05
   2.8000000000000000E+03   1.3024154408316144E+02   1.5939320518699751E+02   7.1212467399283059E+02   4.0911337771516711E+00   1.0897384199169803E+05
   2.9000000000000000E+03   1.3811787660256684E+02   1.7141020683487491E+02   7.1111915659976307E+02   4.0868532855221220E+00   1.1589214202659184E+05
   3.0000000000000000E+03   1.4586944643395938E+02   1.8383388722190827E+02   7.0633853174981630E+02   4.0823758986239858E+00   1.2303352979454289E+05
   3.1000000000000000E+03   1.5379613251714892E+02   1.9664175092945180E+02   7.0585375833124010E+02   4.0777276638208440E+00   1.3039214697878623E+05
   3.2000000000000000E+03   1.6150055892383673E+02   2.0981016628529412E+02   7.0140208073833321E+02   4.0729336728355960E+00   1.3796090595956557E+05
   3.3000000000000000E+03   1.6932032623358492E+02   2.2331466657883473E+02   7.0029028887282334E+02   4.0680179936531937E+00   1.4573160448730210E+05
   3.4000000000000000E+03   1.7713104265047659E+02   2.3713021709764178E+02   7.0006167560566655E+02   4.0630036084332630E+00   1.5369503534095598E+05
   3.5000000000000000E+03   1.8491126300386199E+02   2.5123144920000971E+02   7.0047337383022602E+02   4.0579123570751525E+00   1.6184109708755990E+05
   3.6000000000000000E+03   1.9251075021950874E+02   2.6559286370603479E+02   6.9961689674482534E+02   4.0527648875525033E+00   1.7015890746704099E+05
   3.7000000000000000E+03   2.0002904840278569E+02   2.8018900661107864E+02   6.9917626727926199E+02   4.0475806137992967E+00   1.7863691769365687E+05
   3.8000000000000000E+03   2.0761751298591190E+02   2.9499462033571820E+02   7.0093931094711252E+02   4.0423776825101747E+00   1.8726302991373118E+05
   3.9000000000000000E+03   2.1512818471176405E+02   3.0998477377251055E+02   7.0302403164909038E+02   4.0371729494806905E+00   1.9602471402318918E+05
   4.0000000000000000E+03   2.2248505317216200E+02   3.2513497410320929E+02   7.0470265681035653E+02   4.0319819664257146E+00   2.0490912373621558E+05
   4.1000000000000000E+03   2.2953690505833222E+02   3.4042126309432598E+02   7.0469130660751398E+02   4.0268189782314527E+00   2.1390320916954672E+05
   4.2000000000000000E+03   2.3658476600592496E+02   3.5582030010942890E+02   7.0601153485396594E+02   4.0216969307973178E+00   2.2299383044811821E+05
   4.3000000000000000E+03   2.4342577837277534E+02   3.7130943369270818E+02   7.0678530174695186E+02   4.0166274890209728E+00   2.3216786055423098E+05
   4.4000000000000000E+03   2.5045242503867212E+02   3.8686676311973548E+02   7.1027518333609464E+02   4.0116210647029895E+00   2.4141228015399756E+05
   4.5000000000000000E+03   2.5702282444337379E+02   4.0247119110172747E+02   7.1120965240563351E+02   4.0066868528743660E+00   2.5071426981478860E+05
   4.6000000000000000E+03   2.6349336907681260E+02   4.1810246837968009E+02   7.1255332648231911E+02   4.0018328761669517E+00   2.6006128766577243E+05
   4.7000000000000000E+03   2.7027630189916613E+02   4.3374123084172015E+02   7.1715674188614764E+02   3.9970660358417622E+00   2.6944113909570192E+05
   4.8000000000000000E+03   2.7631355298650550E+02   4.4936902958546551E+02   7.1749681435741559E+02   3.9923921684696539E+00   2.7884203704693855E+05
   4.9000000000000000E+03   2.8246269295755474E+02   4.6496835430372641E+02   7.1962816127417614E+02   3.9878161068346043E+00   2.8825265252050699E+05
   5.0000000000000000E+03   2.8870913413331948E+02   4.8052265025773340E+02   7.2326122314224381E+02   3.9833417441212013E+00   2.9766215416013438E+05
   5.1000000000000000E+03   2.9478850642638895E+02   4.9601632910784713E+02   7.2663864704369041E+02   3.9789721003362928E+00   3.0706023903715773E+05
   5.2000000000000000E+03   3.0036848248739648E+02   5.1143477394543970E+02   7.2782293126997740E+02   3.9747093895125962E+00   3.1643715599939454E+05
   5.3000000000000000E+03   3.0603862910146353E+02   5.2676433877947272E+02   7.3036456122297409E+02   3.9705550871804087E+00   3.2578372076352499E+05
   5.4000000000000000E+03   3.1118024778958340E+02   5.4199234283357498E+02   7.3071262366412600E+02   3.9665099971690649E+00   3.3509132156195544E+05
   5.5000000000000000E+03   3.1678954097562354E+02   5.5710706007985470E+02   7.3438545177570018E+02   3.9625743166210659E+00   3.4435192391318240E+05
   5.6000000000000000E+03   3.2170703147668485E+02   5.7209770431342156E+02   7.3504277169821944E+02   3.9587476993305875E+00   3.5355806314038538E+05
   5.7000000000000000E+03   3.2681475492886557E+02   5.8695441030877396E+02   7.3739377212342617E+02   3.9550293160211853E+00   3.6270284069641388E+05
   5.8000000000000000E+03   3.3191625760133934E+02   6.0166821137517888E+02   7.4032257503043945E+02   3.9514179120542074E+00   3.7177990629003040E+05
   5.9000000000000000E+03   3.3649308656621395E+02   6.1623101384657912E+02   7.4125621042169325E+02   3.9479118615625661E+00   3.8078344660480390E+05
   6.0000000000000000E+03   3.4101533037554611E+02   6.3063556888922642E+02   7.4254616312378926E+02   3.9445092182108925E+00   3.8970816652158363E+05
   6.1000000000000000E+03   3.4572098339295695E+02   6.4487544207901271E+02   7.4525705878077292E+02   3.9412077622693538E+00   3.9854926900063478E+05
   6.2000000000000000E+03   3.5000185740431237E+02   6.5894498112024212E+02   7.4651917979374798E+02   3.9380050442468475E+00   4.0730243310873763E+05
   6.3000000000000000E+03   3.5410362216721575E+02   6.7283928214850380E+02   7.4749975248819555E+02   3.9348984246814251E+00   4.1596379271150113E+05
   6.4000000000000000E+03   3.5841378822721521E+02   6.8655415495122793E+02   7.4989394921401197E+02   3.9318851103784156E+00   4.2452991522588121E+05
   6.5000000000000000E+03   3.6195194260866737E+02   7.0008608740789600E+02   7.4939938254696858E+02   3.9289621874760345E+00   4.3299777329881903E+05
   6.6000000000000000E+03   3.6605317724365943E+02   7.1343220953724392E+02   7.5178437030235057E+02   3.9261266508469523E+00   4.4136472832728724E+05
   6.7000000000000000E+03   3.6966759334712538E+02   7.2659025735359592E+02   7.5253520964559129E+02   3.9233754305954744E+00   4.4962850339039369E+05
   6.8000000000000000E+03   3.7315793468228986E+02   7.3955853681296219E+02   7.5319782382715391E+02   3.9207054155832650E+00   4.5778716009979363E+05
   6.9000000000000000E+03   3.7687674022714407E+02   7.5233588807324440E+02   7.5517642513043597E+02   3.9181134741400259E+00   4.6583907904763683E+05
   7.0000000000000000E+03   3.7979075286343055E+02   7.6492165024726717E+02   7.5431540653414095E+02   3.9155964722719432E+00   4.7378293745986582E+05
   7.1000000000000000E+03   3.8265840559064827E+02   7.7731562683404979E+02   7.5368279710651802E+02   3.9131512894125078E+00   4.8161768805043085E+05
   7.2000000000000000E+03   3.8598431873622297E+02   7.8951805192559334E+02   7.5518243541597792E+02   3.9107748322966867E+00   4.8934253826664417E+05
   7.3000000000000000E+03   3.8894829752245766E+02   8.0152955739468086E+02   7.5561734640865768E+02   3.9084640464221572E+00   4.9695693391775119E+05
   7.4000000000000000E+03   3.9199962541985406E+02   8.1335114104853153E+02   7.5669205117280762E+02   3.9062159262594491E+00   5.0446053764667548E+05
   7.5000000000000000E+03   3.9435672789541724E+02   8.2498413594471936E+02   7.5549776520388116E+02   3.9040275233842783E+00   5.1185321360449697E+05
   7.6000000000000000E+03   3.9742608996688625E+02   8.3643018084034622E+02   7.5721202424396552E+02   3.9018959534928292E+00   5.1913501095297566E+05
   7.7000000000000000E+03   4.0003313403553551E+02   8.4769119186813464E+02   7.5750800916921253E+02   3.8998184020541773E+00   5.2630614618769882E+05
   7.8000000000000000E+03   4.0247471420135190E+02   8.5876933547759836E+02   7.5747757423592509E+02   3.8977921286892583E+00   5.3336699132778938E+05
   7.9000000000000000E+03   4.0504506922898418E+02   8.6966700262316067E+02   7.5815260960746605E+02   3.8958144707678595E+00   5.4031805787014496E+05
   8.0000000000000000E+03   4.0640099049313579E+02   8.8038678424934881E+02   7.5485397631985893E+02   3.8938828459779136E+00   5.4715998307629849E+05
   8.1000000000000000E+03   4.0866754738317235E+02   8.9093144806264343E+02   7.5496998480151308E+02   3.8919947540681403E+00   5.5389352133390075E+05
   8.2000000000000000E+03   4.1138690377909023E+02   9.0130391655124015E+02   7.5683149988185107E+02   3.8901477781662068E+00   5.6051952760727424E+05
   8.3000000000000000E+03   4.1320917273912687E+02   9.1150724629734680E+02   7.5585914370234889E+02   3.8883395851808720E+00   5.6703895132641075E+05
   8.4000000000000000E+03   4.1493958998117927E+02   9.2154460849894997E+02   7.5479975133035009E+02   3.8865679259695556E+00   5.7345282250419073E+05
   8.5000000000000000E+03   4.1626913445792184E+02   9.3141927071505665E+02   7.5263707868739891E+02   3.8848306349473489E+00   5.7976224519259227E+05
   8.6000000000000000E+03   4.1874497064563985E+02   9.4113457978821737E+02   7.5440890302902642E+02   3.8831256293497574E+00   5.8596838668276253E+05
   8.7000000000000000E+03   4.2006941456764025E+02   9.5069394591219111E+02   7.5261776586242831E+02   3.8814509081826292E+00   5.9207247041608859E+05
   8.8000000000000000E+03   4.2184220738103767E+02   9.6010082780480127E+02   7.5244694119469807E+02   3.8798045509375174E+00   5.9807576967356075E+05
   8.9000000000000000E+03   4.2272215148324767E+02   9.6935871894459467E+02   7.4961945033119082E+02   3.8781847161394731E+00   6.0397959723625239E+05
   9.0000000000000000E+03   4.2469431595640469E+02   9.7847113484849876E+02   7.5039459060228762E+02   3.8765896395597221E+00   6.0978530258582695E+05
   9.1000000000000000E+03   4.2546290365024197E+02   9.8744160131468004E+02   7.4757241266686810E+02   3.8750176324953465E+00   6.1549426287902333E+05
   9.2000000000000000E+03   4.2680642851845829E+02   9.9627364361936031E+02   7.4669091456811589E+02   3.8734670797920678E+00   6.2110788034056197E+05
   9.3000000000000000E+03   4.2839142741404680E+02   1.0049707766032716E+03   7.4668103549644843E+02   3.8719364378669954E+00   6.2662757521221845E+05
   9.4000000000000000E+03   4.2970223712820211E+02   1.0135364956158867E+03   7.4596324769525609E+02   3.8704242326196976E+00   6.3205478248835914E+05
   9.5000000000000000E+03   4.3016869398047203E+02   1.0219742682625474E+03   7.4284757590101640E+02   3.8689290573879385E+00   6.3739094498329365E+05
   9.6000000000000000E+03   4.3141072037396623E+02   1.0302875269313154E+03   7.4218450158528094E+02   3.8674495707246841E+00   6.4263751485181670E+05
   9.7000000000000000E+03   4.3233283785099360E+02   1.0384796620276506E+03   7.4069324696173976E+02   3.8659844943761916E+00   6.4779594423433673E+05
   9.8000000000000000E+03   4.3342981867379319E+02   1.0465540159065590E+03   7.3983006933015042E+02   3.8645326110925171E+00   6.5286768508520839E+05
   9.9000000000000000E+03   4.3449925442822860E+02   1.0545138774403135E+03   7.3899143105066105E+02   3.8630927625497633E+00   6.5785418572585157E+05
   1.0000000000000000E+04   4.3460987606487390E+02   1.0623624771965067E+03   7.3550188994522387E+02   3.8616638472164402E+00   6.6275688925506384E+05
   1.0100000000000000E+04   4.3573283992921540E+02   1.0701029831764045E+03   7.3502672980384830E+02   3.8602448183315494E+00   6.6757722950870567E+05
   1.0200000000000000E+04   4.3655103295672114E+02   1.0777384970822254E+03   7.3377581515907139E+02   3.8588346819385286E+00   6.7231662935820327E+05
   1.0300000000000000E+04   4.3734358248075119E+02   1.0852720510919867E+03   7.3254501042087986E+02   3.8574324947851300E+00   6.7697649982406304E+05
   1.0400000000000000E+04   4.3792364962628733E+02   1.0927066050787939E+03   7.3081020280401037E+02   3.8560373625025854E+00   6.8155823715822538E+05
   1.0500000000000000E+04   4.3791106276782506E+02   1.1000450442730851E+03   7.2752933376865053E+02   3.8546484376395336E+00   6.8606322235138435E+05
   1.0600000000000000E+04   4.3875093669902162E+02   1.1072901773105525E+03   7.2669571654198455E+02   3.8532649179305563E+00   6.9049281851707399E+05
   1.0700000000000000E+04   4.3918347293267385E+02   1.1144447346656507E+03   7.2482420760505227E+02   3.8518860443747931E+00   6.9484837254903128E+05
   1.0800000000000000E+04   4.3980608894077506E+02   1.1215113674081765E+03   7.2354952173954359E+02   3.8505110996385064E+00   6.9913120951190463E+05
   1.0900000000000000E+04   4.3978232581330150E+02   1.1284926462881635E+03   7.2060938524287815E+02   3.8491394063124527E+00   7.0334263609005813E+05
   1.1000000000000000E+04   4.4122994811273804E+02   1.1353910611074057E+03   7.2168914334435726E+02   3.8477703252697575E+00   7.0748393792138109E+05
   1.1100000000000000E+04   4.4137646582929165E+02   1.1422090203515750E+03   7.1935040315694425E+02   3.8464032541690361E+00   7.1155637815451436E+05
   1.1200000000000000E+04   4.4207062483466615E+02   1.1489488510747058E+03   7.1853470321094608E+02   3.8450376258792995E+00   7.1556119929468865E+05
   1.1300000000000000E+04   4.4188976255913394E+02   1.1556127990035247E+03   7.1547846893933206E+02   3.8436729070054190E+00   7.1949962107041443E+05
   1.1400000000000000E+04   4.4176971639275297E+02   1.1622030288381886E+03   7.1266291212697217E+02   3.8423085965811294E+00   7.2337283890631632E+05
   1.1500000000000000E+04   4.4108996419830851E+02   1.1687216247541839E+03   7.0847848927682196E+02   3.8409442245386378E+00   7.2718202781549469E+05
   1.1600000000000000E+04   4.4179586417838027E+02   1.1751705910518344E+03   7.0794027637708598E+02   3.8395793505580245E+00   7.3092833742504998E+05
   1.1700000000000000E+04   4.4147506187393935E+02   1.1815518529730132E+03   7.0482642297682696E+02   3.8382135626932299E+00   7.3461289574565680E+05
   1.1800000000000000E+04   4.4125924500198965E+02   1.1878672576433421E+03   7.0205167959009589E+02   3.8368464762214702E+00   7.3823680517803552E+05
   1.1900000000000000E+04   4.4124814334160175E+02   1.1941185751425703E+03   6.9985827833742303E+02   3.8354777324256082E+00   7.4180114616719191E+05
   1.2000000000000000E+04   4.4111002668723080E+02   1.2003074996788753E+03   6.9740441986700228E+02   3.8341069974994224E+00   7.4530697684637830E+05
   1.2100000000000000E+04   4.4162056178500075E+02   1.2064356508617100E+03   6.9662170307621125E+02   3.8327339614528637E+00   7.4875532971092965E+05
   1.2200000000000000E+04   4.4105023572811666E+02   1.2125045750584829E+03   6.9320425252278278E+02   3.8313583370731683E+00   7.5214721482676733E+05
   1.2300000000000000E+04   4.4094587414892106E+02   1.2185157468274224E+03   6.9099833986391877E+02   3.8299798588859728E+00   7.5548362106375187E+05
   1.2400000000000000E+04   4.4097037223190949E+02   1.2244705704070593E+03   6.8915776215121468E+02   3.8285982822951681E+00   7.5876551084518584E+05
   1.2500000000000000E+04   4.4030088392651561E+02   1.2303703812748183E+03   6.8567786536566302E+02   3.8272133824993175E+00   7.6199382864855241E+05
   1.2600000000000000E+04   4.4076495591973685E+02   1.2362164477355773E+03   6.8499574606313513E+02   3.8258249537543980E+00   7.6516949186221499E+05
   1.2700000000000000E+04   4.4004787986818695E+02   1.2420099725629168E+03   6.8150834083064422E+02   3.8244328084130932E+00   7.6829340032560029E+05
   1.2800000000000000E+04   4.4023313518053709E+02   1.2477520946620011E+03   6.8023395625764738E+02   3.8230367761875423E+00   7.7136642735286790E+05
   1.2900000000000000E+04   4.4015167129227024E+02   1.2534438907663427E+03   6.7836063124845828E+02   3.8216367032779930E+00   7.7438942834855651E+05
   1.3000000000000000E+04   4.3985004637797419E+02   1.2590863771470777E+03   6.7600664250583043E+02   3.8202324516578865E+00   7.7736323703546345E+05
   1.3100000000000000E+04   4.3909402686534634E+02   1.2646805113368082E+03   6.7262929912971458E+02   3.8188238983700877E+00   7.8028866520464944E+05
   1.3200000000000000E+04   4.3868096742524978E+02   1.2702271938657348E+03   6.7010645534420223E+02   3.8174109347784433E+00   7.8316650374184200E+05
   1.3300000000000000E+04   4.3833217699621446E+02   1.2757272699990194E+03   6.6777595926303638E+02   3.8159934658975350E+00   7.8599752593604464E+05
