#Te   kappa_tot   kappa_e_ph  kappa_e_e mu Ce
#[K]  [W/(K*m)]   [W/(K*m)]   [W/(K*m)]   [eV]  [J/(m^3*K)]
   3.0000000000000000E+02   2.8698185185214930E+02   2.9978521998047506E+02   6.7195535366638605E+03   5.1314142611909039E+00   3.0326859718124313E+04
   4.0000000000000000E+02   3.6097718977550016E+02   3.8535425828554224E+02   5.7063505058712717E+03   5.1306151312596979E+00   3.7851014490459340E+04
   5.0000000000000000E+02   4.2855128381345736E+02   4.6872812809768357E+02   4.9997466111246094E+03   5.1306363389012049E+00   4.5031561387537549E+04
   6.0000000000000000E+02   4.9253177249167214E+02   5.5310608726390922E+02   4.4973240318169583E+03   5.1311403726273817E+00   5.2144079057458286E+04
   7.0000000000000000E+02   5.5362368496671434E+02   6.3971070853206436E+02   4.1139649752362675E+03   5.1318727177492001E+00   5.9235382574414783E+04
   8.0000000000000000E+02   6.1194487610239355E+02   7.2848556468958895E+02   3.8252134428810391E+03   5.1326590766225584E+00   6.6263986243042003E+04
   9.0000000000000000E+02   6.6721946774440005E+02   8.1877270738546747E+02   3.6046810435673315E+03   5.1333947889110512E+00   7.3174817722292253E+04
   1.0000000000000000E+03   7.1823363567554418E+02   9.0972334093411860E+02   3.4121620362604731E+03   5.1340265317561133E+00   7.9925818070339985E+04
   1.1000000000000000E+03   7.6512751717272431E+02   1.0005044217023508E+03   3.2522879236059380E+03   5.1345345371128097E+00   8.6491465394028710E+04
   1.2000000000000000E+03   8.0757651191323055E+02   1.0903999584396561E+03   3.1135374589417293E+03   5.1349188710094742E+00   9.2859203805786543E+04
   1.3000000000000000E+03   8.4557358094859012E+02   1.1788597673585225E+03   2.9908610544558146E+03   5.1351901441978969E+00   9.9025560133842722E+04
   1.4000000000000000E+03   8.7926671239199379E+02   1.2655166564088929E+03   2.8808461650139998E+03   5.1353637615122283E+00   1.0499363227706459E+05
   1.5000000000000000E+03   9.0873622926713915E+02   1.3501814882011008E+03   2.7794133238108011E+03   5.1354566070879448E+00   1.1077170656042149E+05
   1.6000000000000000E+03   9.3438437793194851E+02   1.4328230939505759E+03   2.6860022552451678E+03   5.1354852629973413E+00   1.1637240058666976E+05
   1.7000000000000000E+03   9.5661328961844572E+02   1.5135394706586092E+03   2.5997556252247332E+03   5.1354651369009803E+00   1.2181190334009366E+05
   1.8000000000000000E+03   9.7467919005616977E+02   1.5925257771317083E+03   2.5122769423156687E+03   5.1354101042409406E+00   1.2710913095788225E+05
   1.9000000000000000E+03   9.9097508751832925E+02   1.6700432263457544E+03   2.4371210159338120E+03   5.1353324297594085E+00   1.3228478491364836E+05
   2.0000000000000000E+03   1.0047938218489720E+03   1.7463914581826295E+03   2.3661932856029562E+03   5.1352428324976742E+00   1.3736038000616658E+05
   2.1000000000000000E+03   1.0108858763570602E+03   1.8218856852192498E+03   2.2709234791425229E+03   5.1351506182156150E+00   1.4235732685567535E+05
   2.2000000000000000E+03   1.0143881262073611E+03   1.8968389615052286E+03   2.1804397966589536E+03   5.1350638367004322E+00   1.4729613613678416E+05
   2.3000000000000000E+03   1.0175748609858032E+03   1.9715493212692913E+03   2.1029902896153858E+03   5.1349894416318405E+00   1.5219578832611375E+05
   2.4000000000000000E+03   1.0147619454630916E+03   2.0462912031593094E+03   2.0130291281698901E+03   5.1349334409808840E+00   1.5707328030651135E+05
   2.5000000000000000E+03   1.0139227735172785E+03   2.1213104348877964E+03   1.9422692112811369E+03   5.1349010326523432E+00   1.6194334687732722E+05
   2.6000000000000000E+03   1.0133484689355125E+03   2.1968220337987700E+03   1.8810274353115772E+03   5.1348967234049212E+00   1.6681833670084388E+05
   2.7000000000000000E+03   1.0103529798818198E+03   2.2730101290350963E+03   1.8188172131383444E+03   5.1349244308045394E+00   1.7170821266190961E+05
   2.8000000000000000E+03   1.0074650015934568E+03   2.3500293958984403E+03   1.7634702507577920E+03   5.1349875695353271E+00   1.7662065402386413E+05
   2.9000000000000000E+03   1.0034053864945637E+03   2.4280074906628283E+03   1.7101447396798694E+03   5.1350891234266962E+00   1.8156122552818782E+05
   3.0000000000000000E+03   9.9860616387023185E+02   2.5070480717526748E+03   1.6596951095622230E+03   5.1352317051623331E+00   1.8653359550976913E+05
   3.1000000000000000E+03   9.9167771090536871E+02   2.5872340837617016E+03   1.6080299119535866E+03   5.1354176053500593E+00   1.9153977549334205E+05
   3.2000000000000000E+03   9.8326330223316427E+02   2.6686310609864131E+03   1.5569106361738959E+03   5.1356488326821941E+00   1.9658036970694008E+05
   3.3000000000000000E+03   9.7735790906822410E+02   2.7512902757238762E+03   1.5158386879149839E+03   5.1359271467725316E+00   2.0165481912956337E+05
   3.4000000000000000E+03   9.6898399777457598E+02   2.8352516135650312E+03   1.4720897581697791E+03   5.1362540850873977E+00   2.0676163120032003E+05
   3.5000000000000000E+03   9.6182702502268387E+02   2.9205461040067607E+03   1.4341312140153245E+03   5.1366309851182148E+00   2.1189859307070079E+05
   3.6000000000000000E+03   9.5722805129949779E+02   3.0071980709844470E+03   1.4042031452745080E+03   5.1370590025886491E+00   2.1706295642983384E+05
   3.7000000000000000E+03   9.4947412382583286E+02   3.0952268955822865E+03   1.3696069199619365E+03   5.1375391270125261E+00   2.2225160227611900E+05
   3.8000000000000000E+03   9.4188348985197558E+02   3.1846484034478271E+03   1.3374418932663430E+03   5.1380721947712633E+00   2.2746117973193916E+05
   3.9000000000000000E+03   9.3458830167970655E+02   3.2754759035802244E+03   1.3077182601311151E+03   5.1386589004701211E+00   2.3268821899748102E+05
   4.0000000000000000E+03   9.2876261103983120E+02   3.3677209142388251E+03   1.2824381890659577E+03   5.1392998070626668E+00   2.3792922461438936E+05
   4.1000000000000000E+03   9.2194761503653592E+02   3.4613936168204168E+03   1.2566613298682225E+03   5.1399953549459232E+00   2.4318074841506869E+05
   4.2000000000000000E+03   9.1806603673788095E+02   3.5565030805393321E+03   1.2375147231455096E+03   5.1407458702623936E+00   2.4843944259009522E+05
   4.3000000000000000E+03   9.1172175983165232E+02   3.6530573003812415E+03   1.2149449716767363E+03   5.1415515726959420E+00   2.5370210040372374E+05
   4.4000000000000000E+03   9.0541271108011426E+02   3.7510630887930338E+03   1.1934917329465682E+03   5.1424125828288414E+00   2.5896568050424047E+05
   4.5000000000000000E+03   8.9798009273046728E+02   3.8505258584208595E+03   1.1710895755064832E+03   5.1433289290770707E+00   2.6422732306534488E+05
   4.6000000000000000E+03   8.9169803642372347E+02   3.9514493292996622E+03   1.1515640556041794E+03   5.1443005544905631E+00   2.6948435778943333E+05
   4.7000000000000000E+03   8.8688896869377618E+02   4.0538351897735624E+03   1.1352582139797048E+03   5.1453273230303571E+00   2.7473429824654391E+05
   4.8000000000000000E+03   8.8152887601530426E+02   4.1576827359394993E+03   1.1187256599498617E+03   5.1464090259470181E+00   2.7997484157323343E+05
   4.9000000000000000E+03   8.7728290143878098E+02   4.2629885103668857E+03   1.1045989702450422E+03   5.1475453876697008E+00   2.8520385537862615E+05
   5.0000000000000000E+03   8.7352455428239557E+02   4.3697459566960542E+03   1.0917730743582354E+03   5.1487360715095685E+00   2.9041936379593174E+05
   5.1000000000000000E+03   8.6780102588757620E+02   4.4779451030531063E+03   1.0764017366721725E+03   5.1499806853126540E+00   2.9561953649130586E+05
   5.2000000000000000E+03   8.6247191891340015E+02   4.5875722840132921E+03   1.0621599106473398E+03   5.1512787865726830E+00   3.0080266957160382E+05
   5.3000000000000000E+03   8.5723270615878653E+02   4.6986099077361041E+03   1.0485307417192046E+03   5.1526298876114112E+00   3.0596717217957845E+05
   5.4000000000000000E+03   8.5343404603006059E+02   4.8110362725826335E+03   1.0374721653833788E+03   5.1540334602359152E+00   3.1111154937680560E+05
   5.5000000000000000E+03   8.4895574015246757E+02   4.9248254352139375E+03   1.0257832402099625E+03   5.1554889403789295E+00   3.1623438842261437E+05
   5.6000000000000000E+03   8.4588054782448398E+02   5.0399471305644083E+03   1.0164820123154014E+03   5.1569957322667728E+00   3.2133434466620081E+05
   5.7000000000000000E+03   8.4213925886956247E+02   5.1563667425324984E+03   1.0065252431541094E+03   5.1585532124859865E+00   3.2641012800365721E+05
   5.8000000000000000E+03   8.3815622369880646E+02   5.2740453232022764E+03   9.9652489333116466E+02   5.1601607337631474E+00   3.3146049218365131E+05
   5.9000000000000000E+03   8.3390136448668466E+02   5.3929396575341125E+03   9.8643166605340593E+02   5.1618176283903034E+00   3.3648422448672552E+05
   6.0000000000000000E+03   8.3062793980643676E+02   5.5130023698218574E+03   9.7797685106913832E+02   5.1635232115491601E+00   3.4148013675905933E+05
   6.1000000000000000E+03   8.2624457478023044E+02   5.6341820678562499E+03   9.6823479373313921E+02   5.1652767842809491E+00   3.4644705780090328E+05
   6.2000000000000000E+03   8.2448399198142249E+02   5.7564235204484985E+03   9.6231493031916534E+02   5.1670776363381128E+00   3.5138383087050461E+05
   6.3000000000000000E+03   8.2215165093657288E+02   5.8796678638996736E+03   9.5580091841795513E+02   5.1689250486817011E+00   3.5628930263206328E+05
   6.4000000000000000E+03   8.1882334171961145E+02   6.0038528329867613E+03   9.4813247411203258E+02   5.1708182958099842E+00   3.6116232428482635E+05
   6.5000000000000000E+03   8.1576472928485362E+02   6.1289130121635735E+03   9.4101478031196916E+02   5.1727566480027045E+00   3.6600174842497619E+05
   6.6000000000000000E+03   8.1294258018685957E+02   6.2547801028330250E+03   9.3438605142807921E+02   5.1747393731603619E+00   3.7080642395870056E+05
   6.7000000000000000E+03   8.0952034654373836E+02   6.3813832027893595E+03   9.2713329007369771E+02   5.1767657387109773E+00   3.7557520299291355E+05
   6.8000000000000000E+03   8.0612641008832907E+02   6.5086490941563725E+03   9.2008295617230124E+02   5.1788350130612733E+00   3.8030692958339379E+05
   6.9000000000000000E+03   8.0359301378326245E+02   6.6365025364973908E+03   9.1430306839435900E+02   5.1809464671997025E+00   3.8500045342828665E+05
   7.0000000000000000E+03   8.0291764959122565E+02   6.7648665619876792E+03   9.1104953087666343E+02   5.1830993758776520E+00   3.8965461950288276E+05
   7.1000000000000000E+03   8.0430171185143979E+02   6.8936627699379014E+03   9.1053637875924187E+02   5.1852930188581032E+00   3.9426827812442428E+05
   7.2000000000000000E+03   8.0398534538733702E+02   7.0228116181744208E+03   9.0792657275786814E+02   5.1875266818943491E+00   3.9884027940116008E+05
   7.3000000000000000E+03   8.0096182613527628E+02   7.1522327091652060E+03   9.0197150730634678E+02   5.1897996577424275E+00   4.0336948462857807E+05
   7.4000000000000000E+03   7.9811809556754940E+02   7.2818450689585443E+03   8.9636290092202671E+02   5.1921112468867108E+00   4.0785476111452590E+05
   7.5000000000000000E+03   7.9495877657642109E+02   7.4115674173877687E+03   8.9046985948344752E+02   5.1944607582823812E+00   4.1229498579548887E+05
   7.6000000000000000E+03   7.9109504872357513E+02   7.5413184281965641E+03   8.8380773998325560E+02   5.1968475100641109E+00   4.1668905549244798E+05
   7.7000000000000000E+03   7.8887028678505988E+02   7.6710169779048165E+03   8.7929502739329723E+02   5.1992708299848127E+00   4.2103587790524337E+05
   7.8000000000000000E+03   7.8617506056839466E+02   7.8005823826334590E+03   8.7428959362601529E+02   5.2017300559893576E+00   4.2533438466245215E+05
   7.9000000000000000E+03   7.8339917634548124E+02   7.9299346220782490E+03   8.6927495127992586E+02   5.2042245365182982E+00   4.2958352933988924E+05
   8.0000000000000000E+03   7.8355907728056275E+02   8.0589945502476576E+03   8.6794781660345825E+02   5.2067536309466051E+00   4.3378228773770737E+05
   8.1000000000000000E+03   7.8105821971439275E+02   8.1876840925076503E+03   8.6342392213556116E+02   5.2093167098198956E+00   4.3792966686639702E+05
   8.2000000000000000E+03   7.7773899225083073E+02   8.3159264288033864E+03   8.5798082029749014E+02   5.2119131551075535E+00   4.4202470334593055E+05
   8.3000000000000000E+03   7.7442193346246665E+02   8.4436461629640635E+03   8.5262141141236611E+02   5.2145423604052139E+00   4.4606646640445635E+05
   8.4000000000000000E+03   7.7030663404287532E+02   8.5707694781149949E+03   8.4637549332875631E+02   5.2172037310528774E+00   4.5005405976570107E+05
   8.5000000000000000E+03   7.6802575404747040E+02   8.6972242783794700E+03   8.4241707582735728E+02   5.2198966842699157E+00   4.5398662227021274E+05
   8.6000000000000000E+03   7.6595326203849947E+02   8.8229403170601399E+03   8.3877010977834516E+02   5.2226206492225549E+00   4.5786333485560270E+05
   8.7000000000000000E+03   7.6541799269536818E+02   8.9478493116195405E+03   8.3701831302886490E+02   5.2253750670745021E+00   4.6168341439586133E+05
   8.8000000000000000E+03   7.6439250164529403E+02   9.0718850458115594E+03   8.3472610633590057E+02   5.2281593910038255E+00   4.6544612146236596E+05
   8.9000000000000000E+03   7.6121598192639510E+02   9.1949834593822216E+03   8.2992190400559446E+02   5.2309730862029422E+00   4.6915075925987412E+05
   9.0000000000000000E+03   7.6058120011798871E+02   9.3170827257921064E+03   8.2818871006082657E+02   5.2338156298617555E+00   4.7279667571344913E+05
   9.1000000000000000E+03   7.5580854968678022E+02   9.4381233184172143E+03   8.2160281987806525E+02   5.2366865110832830E+00   4.7638326185923693E+05
   9.2000000000000000E+03   7.5375901083726819E+02   9.5580480657913358E+03   8.1829035946429735E+02   5.2395852308330220E+00   4.7990995351163758E+05
   9.3000000000000000E+03   7.5251396052420944E+02   9.6768021963931333E+03   8.1596745348825596E+02   5.2425113018714731E+00   4.8337623540106992E+05
   9.4000000000000000E+03   7.4924721670611791E+02   9.7943333735182568E+03   8.1131090322159434E+02   5.2454642486697542E+00   4.8678163658695354E+05
   9.5000000000000000E+03   7.4772913928178946E+02   9.9105917207245657E+03   8.0874706471301977E+02   5.2484436072071086E+00   4.9012573040864168E+05
   9.6000000000000000E+03   7.4662332450772749E+02   1.0025529838614755E+04   8.0670005745588969E+02   5.2514489250215535E+00   4.9340814219378366E+05
   9.7000000000000000E+03   7.4436365716657372E+02   1.0139102813144727E+04   8.0334105344242676E+02   5.2544797608892342E+00   4.9662853750091634E+05
   9.8000000000000000E+03   7.4262715427071612E+02   1.0251268216391180E+04   8.0062651365943168E+02   5.2575356848075829E+00   4.9978663221663656E+05
   9.9000000000000000E+03   7.3985730557219472E+02   1.0361986100049982E+04   7.9674584284917421E+02   5.2606162778265606E+00   5.0288218696812371E+05
   1.0000000000000000E+04   7.3806133514023304E+02   1.0471218982266377E+04   7.9402822216479728E+02   5.2637211318630373E+00   5.0591501073298365E+05
   1.0100000000000000E+04   7.3453048056279408E+02   1.0578931828339484E+04   7.8933676159659819E+02   5.2668498495489446E+00   5.0888494907264487E+05
   1.0200000000000000E+04   7.3317424052121146E+02   1.0685092025788215E+04   7.8718839925548548E+02   5.2700020440962723E+00   5.1179190302530408E+05
   1.0300000000000000E+04   7.3024307286895441E+02   1.0789669354187496E+04   7.8325354588801770E+02   5.2731773390608163E+00   5.1463580866051413E+05
   1.0400000000000000E+04   7.2897418869304511E+02   1.0892635950391579E+04   7.8125882588780712E+02   5.2763753682578463E+00   5.1741664599435637E+05
   1.0500000000000000E+04   7.2650372753153533E+02   1.0993966269405431E+04   7.7790958014260173E+02   5.2795957755258192E+00   5.2013444419035577E+05
   1.0600000000000000E+04   7.2402307877201360E+02   1.1093637041433407E+04   7.7457553139773950E+02   5.2828382145070574E+00   5.2278925971461996E+05
   1.0700000000000000E+04   7.2199355996226802E+02   1.1191627225593576E+04   7.7178276150216334E+02   5.2861023485802292E+00   5.2538120220716915E+05
   1.0800000000000000E+04   7.1777288407525646E+02   1.1287917960461409E+04   7.6651373951201583E+02   5.2893878505735055E+00   5.2791041393508867E+05
   1.0900000000000000E+04   7.1477302797968321E+02   1.1382492512035056E+04   7.6266522108532934E+02   5.2926944026295493E+00   5.3037707459278824E+05
   1.1000000000000000E+04   7.1187417600752963E+02   1.1475336219318979E+04   7.5895613164849442E+02   5.2960216959692845E+00   5.3278140012878494E+05
   1.1100000000000000E+04   7.0933772234078629E+02   1.1566436437994993E+04   7.5568159536923520E+02   5.2993694307906622E+00   5.3512364317031519E+05
   1.1200000000000000E+04   7.0781830301558830E+02   1.1655782482292640E+04   7.5358085227860124E+02   5.3027373159649125E+00   5.3740409024919220E+05
   1.1300000000000000E+04   7.0615031110800328E+02   1.1743365565625396E+04   7.5132912210145923E+02   5.3061250690028068E+00   5.3962306054932729E+05
   1.1400000000000000E+04   7.0441149692997180E+02   1.1829178739924264E+04   7.4901427792924142E+02   5.3095324157002963E+00   5.4178090464972437E+05
   1.1500000000000000E+04   7.0125548674195113E+02   1.1913216834263651E+04   7.4511572157895318E+02   5.3129590900541368E+00   5.4387800496381673E+05
   1.1600000000000000E+04   6.9793431853949585E+02   1.1995476392793364E+04   7.4105098142011286E+02   5.3164048340594148E+00   5.4591476762904983E+05
   1.1700000000000000E+04   6.9469607122019715E+02   1.2075955612266458E+04   7.3709934210847462E+02   5.3198693975070404E+00   5.4789163320627646E+05
   1.1800000000000000E+04   6.9188929235298440E+02   1.2154654279393893E+04   7.3365153675160150E+02   5.3233525378318900E+00   5.4980906693982799E+05
   1.1900000000000000E+04   6.8893615323892413E+02   1.2231573708151280E+04   7.3005613305130669E+02   5.3268540198934486E+00   5.5166755738553009E+05
   1.2000000000000000E+04   6.8708273564829176E+02   1.2306716677266695E+04   7.2771075267515062E+02   5.3303736157901858E+00   5.5346761505050724E+05
   1.2100000000000000E+04   6.8310964770358294E+02   1.2380087368062968E+04   7.2300361022464483E+02   5.3339111047414347E+00   5.5520977655514923E+05
   1.2200000000000000E+04   6.8061777173349890E+02   1.2451691302715006E+04   7.1997191814845610E+02   5.3374662728680331E+00   5.5689460361128848E+05
   1.2300000000000000E+04   6.7659622009543421E+02   1.2521535283125186E+04   7.1524415594478376E+02   5.3410389130067193E+00   5.5852267074033630E+05
   1.2400000000000000E+04   6.7444720225286312E+02   1.2589627330526868E+04   7.1262363128957691E+02   5.3446288245413660E+00   5.6009457506384677E+05
   1.2500000000000000E+04   6.7169908047502679E+02   1.2655976625930365E+04   7.0934671113108527E+02   5.3482358132680119E+00   5.6161092957804457E+05
   1.2600000000000000E+04   6.6990652332357411E+02   1.2720593451463283E+04   7.0714711820979085E+02   5.3518596911923604E+00   5.6307236772682646E+05
   1.2700000000000000E+04   6.6698282140059632E+02   1.2783489132739327E+04   7.0369852744757702E+02   5.3555002763610444E+00   5.6447953071255027E+05
   1.2800000000000000E+04   6.6423085083213857E+02   1.2844675982342576E+04   7.0045305933384668E+02   5.3591573927603706E+00   5.6583308581027098E+05
   1.2900000000000000E+04   6.6078804508961321E+02   1.2904167244399710E+04   6.9645147047449041E+02   5.3628308700463476E+00   5.6713370388650091E+05
   1.3000000000000000E+04   6.5722625947638926E+02   1.2961977040455549E+04   6.9233029074316096E+02   5.3665205434940537E+00   5.6838206998198247E+05
   1.3100000000000000E+04   6.5432724973006395E+02   1.3018120316541017E+04   6.8895611705465615E+02   5.3702262537614081E+00   5.6957888240505208E+05
   1.3200000000000000E+04   6.5137842596955716E+02   1.3072612791606716E+04   6.8553717713138769E+02   5.3739478468047972E+00   5.7072484978828614E+05
   1.3300000000000000E+04   6.4801729468992175E+02   1.3125470907252300E+04   6.8167211139021879E+02   5.3776851736597049E+00   5.7182068596844841E+05
