#Te   kappa_tot   kappa_e_ph  kappa_e_e mu Ce
#[K]  [W/(K*m)]   [W/(K*m)]   [W/(K*m)]   [eV]  [J/(m^3*K)]
   3.0000000000000000E+02   3.0090361532867497E+01   3.1918631407966686E+01   5.2532898549671131E+02   3.3903610529379735E+00   2.8491432400698734E+04
   4.0000000000000000E+02   4.3927036446044745E+01   4.6462818375135605E+01   8.0486965094915774E+02   3.3881234360982697E+00   3.8937318903275518E+04
   5.0000000000000000E+02   5.7038199461256028E+01   5.9608081431159363E+01   1.3229936930921203E+03   3.3864786407923702E+00   4.9136940676907754E+04
   6.0000000000000000E+02   6.9551785095787139E+01   7.1668117799542699E+01   2.3553222603269228E+03   3.3854871407297096E+00   5.9000580438359561E+04
   7.0000000000000000E+02   8.1686183149771267E+01   8.3467519030214916E+01   3.8275448899962898E+03   3.3851034966369511E+00   6.8755046390877906E+04
   8.0000000000000000E+02   9.3946751285778006E+01   9.5584341872401936E+01   5.4835674228039506E+03   3.3852479014157457E+00   7.8681120186361732E+04
   9.0000000000000000E+02   1.0667529090021948E+02   1.0832842236653391E+02   6.9903490461500487E+03   3.3858387771519567E+00   8.9006883992453382E+04
   1.0000000000000000E+03   1.2007863458007205E+02   1.2183436143101206E+02   8.3325625268749118E+03   3.3868047046747098E+00   9.9885050902001458E+04
   1.1000000000000000E+03   1.3419144005306308E+02   1.3613840684080708E+02   9.3831127348946993E+03   3.3880866713725921E+00   1.1140239744617912E+05
   1.2000000000000000E+03   1.4902912106311661E+02   1.5122947921993929E+02   1.0242694489121150E+04   3.3896366505164126E+00   1.2359857668792528E+05
   1.3000000000000000E+03   1.6456360650114556E+02   1.6708011525594537E+02   1.0925972853741436E+04   3.3914152729514089E+00   1.3648481628883560E+05
   1.4000000000000000E+03   1.8081609013337277E+02   1.8366361983201145E+02   1.1662507911205728E+04   3.3933896265261572E+00   1.5005891251994827E+05
   1.5000000000000000E+03   1.9768481988070326E+02   2.0096247498967998E+02   1.2120625676054799E+04   3.3955314941133459E+00   1.6431557126697182E+05
   1.6000000000000000E+03   2.1519783535330561E+02   2.1897138753561779E+02   1.2487482967070431E+04   3.3978160415087610E+00   1.7925251418880836E+05
   1.7000000000000000E+03   2.3334721080077384E+02   2.3769704601247273E+02   1.2751274474356511E+04   3.4002208854782450E+00   1.9487322905724621E+05
   1.8000000000000000E+03   2.5213906507271841E+02   2.5715591246115088E+02   1.2924262255889606E+04   3.4027254507870661E+00   2.1118738361445218E+05
   1.9000000000000000E+03   2.7160998433895526E+02   2.7737099555003874E+02   1.3076997943084549E+04   3.4053105400946575E+00   2.2820981396233270E+05
   2.0000000000000000E+03   2.9174655705791929E+02   2.9836831355209864E+02   1.3145745889405467E+04   3.4079580580958213E+00   2.4595878410710397E+05
   2.1000000000000000E+03   3.1243982582568435E+02   3.2017355064099314E+02   1.2934901458899170E+04   3.4106508437569252E+00   2.6445404169189214E+05
   2.2000000000000000E+03   3.3382779451818811E+02   3.4280921973263389E+02   1.2741769043490014E+04   3.4133725803752530E+00   2.8371498094847467E+05
   2.3000000000000000E+03   3.5589393445163580E+02   3.6629248279515377E+02   1.2536487647652040E+04   3.4161077589203344E+00   3.0375910355385143E+05
   2.4000000000000000E+03   3.7853577888233343E+02   3.9063365803837115E+02   1.2222705657413786E+04   3.4188416780776696E+00   3.2460084736423596E+05
   2.5000000000000000E+03   4.0192536338098773E+02   4.1583536442838755E+02   1.2015439782140624E+04   3.4215604678275393E+00   3.4625078344917984E+05
   2.6000000000000000E+03   4.2629748252767126E+02   4.4189221118832887E+02   1.2079564914355267E+04   3.4242511264099034E+00   3.6871515268547874E+05
   2.7000000000000000E+03   4.5084724095501207E+02   4.6879092338711115E+02   1.1778691201965628E+04   3.4269015637198974E+00   3.9199566834609117E+05
   2.8000000000000000E+03   4.7586380112114091E+02   4.9651079522817548E+02   1.1443385564509872E+04   3.4295006439596314E+00   4.1608953928058193E+05
   2.9000000000000000E+03   5.0152748449165773E+02   5.2502437247795990E+02   1.1206341579326794E+04   3.4320382239592111E+00   4.4098963393200643E+05
   3.0000000000000000E+03   5.2760465638576818E+02   5.5429828006793366E+02   1.0955813158700368E+04   3.4345051829673960E+00   4.6668474956092524E+05
   3.1000000000000000E+03   5.5402559876869088E+02   5.8429412663936273E+02   1.0694735626110805E+04   3.4368934417683468E+00   4.9315993185805838E+05
   3.2000000000000000E+03   5.8082370609976817E+02   6.1496943302012153E+02   1.0460718146606758E+04   3.4391959698121384E+00   5.2039682490650803E+05
   3.3000000000000000E+03   6.0772361917129729E+02   6.4627854535927918E+02   1.0186992309712454E+04   3.4414067793091334E+00   5.4837402445602266E+05
   3.4000000000000000E+03   6.3490383810175433E+02   6.7817350506212915E+02   9.9509654570989424E+03   3.4435209069881165E+00   5.7706741511243838E+05
   3.5000000000000000E+03   6.6192495242287475E+02   7.1060485728278684E+02   9.6624487599547429E+03   3.4455343835182357E+00   6.0645050288519706E+05
   3.6000000000000000E+03   6.8941177515990785E+02   7.4352238682795644E+02   9.4730603253718473E+03   3.4474441923882710E+00   6.3649471505279967E+05
   3.7000000000000000E+03   7.1663526061979462E+02   7.7687577596100812E+02   9.2418959403245990E+03   3.4492482195337582E+00   6.6716967947907653E+05
   3.8000000000000000E+03   7.4388513245914771E+02   8.1061518261313086E+02   9.0364772857220996E+03   3.4509451950899139E+00   6.9844349715187878E+05
   3.9000000000000000E+03   7.7098316856092538E+02   8.4469174005192303E+02   8.8353783152887627E+03   3.4525346296326482E+00   7.3028297808306105E+05
   4.0000000000000000E+03   7.9836579412820333E+02   8.7905798106595103E+02   8.6973702135484964E+03   3.4540167463949905E+00   7.6265386977620842E+05
   4.1000000000000000E+03   8.2502153418853220E+02   9.1366819084745578E+02   8.5033769006374332E+03   3.4553924110118959E+00   7.9552107765855733E+05
   4.2000000000000000E+03   8.5161034369607614E+02   9.4847869325362899E+02   8.3384745341431080E+03   3.4566630608713460E+00   8.2884885876887431E+05
   4.3000000000000000E+03   8.7765822378382143E+02   9.8344807575038351E+02   8.1589233305621365E+03   3.4578306348810273E+00   8.6260101816517161E+05
   4.4000000000000000E+03   9.0371480273484974E+02   1.0185373582509515E+03   8.0164326917524195E+03   3.4588975052035589E+00   8.9674108818264201E+05
   4.5000000000000000E+03   9.2945356765449128E+02   1.0537101111641925E+03   7.8818756295011972E+03   3.4598664119445357E+00   9.3123249261417612E+05
   4.6000000000000000E+03   9.5521081319264431E+02   1.0889325280326032E+03   7.7785431248681789E+03   3.4607404010558631E+00   9.6603871578647092E+05
   4.7000000000000000E+03   9.8039947916471453E+02   1.1241734577070451E+03   7.6657757099090531E+03   3.4615227667230011E+00   1.0011234441962778E+06
   4.8000000000000000E+03   1.0052124886209757E+03   1.1594044011793685E+03   7.5584235521189721E+03   3.4622169980173854E+00   1.0364507108010957E+06
   4.9000000000000000E+03   1.0300190006215842E+03   1.1945994777730989E+03   7.4763433764147958E+03   3.4628267303171052E+00   1.0719850189070224E+06
   5.0000000000000000E+03   1.0545247408941825E+03   1.2297353653076541E+03   7.4012998458885631E+03   3.4633557012989931E+00   1.1076914679149431E+06
   5.1000000000000000E+03   1.0775285207294580E+03   1.2647912184227282E+03   7.2777367164225670E+03   3.4638077119395363E+00   1.1435358528714406E+06
   5.2000000000000000E+03   1.1006391089145063E+03   1.2997485692265698E+03   7.1847621142879625E+03   3.4641865918028780E+00   1.1794847602389199E+06
   5.3000000000000000E+03   1.1231604219051626E+03   1.3345912138988326E+03   7.0896013619360319E+03   3.4644961688127078E+00   1.2155056551027040E+06
   5.4000000000000000E+03   1.1456533418421641E+03   1.3693050886889459E+03   7.0142485939655153E+03   3.4647402431362275E+00   1.2515669522652493E+06
   5.5000000000000000E+03   1.1674907574637443E+03   1.4038781384023293E+03   6.9335966441286173E+03   3.4649225648520958E+00   1.2876380802451815E+06
   5.6000000000000000E+03   1.1895426294937174E+03   1.4383001800991344E+03   6.8778590803472625E+03   3.4650468152492553E+00   1.3236895272859954E+06
   5.7000000000000000E+03   1.2103925906036536E+03   1.4725627644809658E+03   6.7985577190817030E+03   3.4651165911441870E+00   1.3596928916348394E+06
   5.8000000000000000E+03   1.2322105981666505E+03   1.5066590369820838E+03   6.7645538127524042E+03   3.4651353923697044E+00   1.3956209052495214E+06
   5.9000000000000000E+03   1.2524616770208318E+03   1.5405836004418418E+03   6.6968937902747557E+03   3.4651066115822755E+00   1.4314474611331604E+06
   6.0000000000000000E+03   1.2722225497518696E+03   1.5743323807651341E+03   6.6297119458056013E+03   3.4650335266065606E+00   1.4671476274458475E+06
   6.1000000000000000E+03   1.2905381802473962E+03   1.6079024968423105E+03   6.5384148556900864E+03   3.4649192946610166E+00   1.5026976551257519E+06
   6.2000000000000000E+03   1.3095216227044357E+03   1.6412921356584709E+03   6.4782958608418730E+03   3.4647669483989287E+00   1.5380749779032057E+06
   6.3000000000000000E+03   1.3289743311502418E+03   1.6745004333205109E+03   6.4405209314296490E+03   3.4645793936117881E+00   1.5732582036760573E+06
   6.4000000000000000E+03   1.3473821794246217E+03   1.7075273625701839E+03   6.3882346533484097E+03   3.4643594079169096E+00   1.6082271122064125E+06
   6.5000000000000000E+03   1.3648344054560682E+03   1.7403736270627146E+03   6.3250964690222427E+03   3.4641096410199146E+00   1.6429626276165799E+06
   6.6000000000000000E+03   1.3831821755874437E+03   1.7730405626774684E+03   6.2905870031281338E+03   3.4638326155677737E+00   1.6774468059631588E+06
   6.7000000000000000E+03   1.4020050337277733E+03   1.8055300458831066E+03   6.2731234412315089E+03   3.4635307288767336E+00   1.7116628096921903E+06
   6.8000000000000000E+03   1.4194986804788673E+03   1.8378444091207439E+03   6.2360328672212354E+03   3.4632062554258285E+00   1.7455948820880498E+06
   6.9000000000000000E+03   1.4358540136843505E+03   1.8699863630839816E+03   6.1848130614599568E+03   3.4628613497221932E+00   1.7792283140644168E+06
   7.0000000000000000E+03   1.4518830111586765E+03   1.9019589256824636E+03   6.1354579594461557E+03   3.4624980496694646E+00   1.8125494174598793E+06
   7.1000000000000000E+03   1.4681784629891879E+03   1.9337653574370181E+03   6.0979221797699165E+03   3.4621182802205341E+00   1.8455454906184266E+06
   7.2000000000000000E+03   1.4835727102045739E+03   1.9654091030060345E+03   6.0514883333207717E+03   3.4617238572162008E+00   1.8782047851364431E+06
   7.3000000000000000E+03   1.5008537545928871E+03   1.9968937385204943E+03   6.0419433152366692E+03   3.4613164915081858E+00   1.9105164720010152E+06
   7.4000000000000000E+03   1.5167977491056424E+03   2.0282229243842430E+03   6.0153549631470560E+03   3.4608977931149538E+00   1.9424706032748681E+06
   7.5000000000000000E+03   1.5310393645351899E+03   2.0594003631822052E+03   5.9675544399454748E+03   3.4604692753556456E+00   1.9740580828670333E+06
   7.6000000000000000E+03   1.5468138537272903E+03   2.0904297623582988E+03   5.9481440210287819E+03   3.4600323592355728E+00   2.0052706234950498E+06
   7.7000000000000000E+03   1.5603805569562001E+03   2.1213148012855140E+03   5.9009739636541917E+03   3.4595883774598546E+00   2.0361007204659183E+06
   7.8000000000000000E+03   1.5727671017533696E+03   2.1520591024252180E+03   5.8428007868187215E+03   3.4591385787860949E+00   2.0665416092741815E+06
   7.9000000000000000E+03   1.5888909550762553E+03   2.1826662062017022E+03   5.8406250284281386E+03   3.4586841319286572E+00   2.0965872370809333E+06
   8.0000000000000000E+03   1.6045530308190180E+03   2.2131395493172822E+03   5.8349957870330454E+03   3.4582261296379384E+00   2.1262322279145517E+06
   8.1000000000000000E+03   1.6192058003775007E+03   2.2434824461860339E+03   5.8189903695735466E+03   3.4577655925718278E+00   2.1554718481564075E+06
   8.2000000000000000E+03   1.6297114004880500E+03   2.2736980732019420E+03   5.7539570742190972E+03   3.4573034729703336E+00   2.1843019780967538E+06
   8.3000000000000000E+03   1.6407234924018351E+03   2.3037894556015235E+03   5.7006115396315508E+03   3.4568406583630109E+00   2.2127190788942175E+06
   8.4000000000000000E+03   1.6578596887172780E+03   2.3337594566480511E+03   5.7242891770541582E+03   3.4563779750139085E+00   2.2407201642783396E+06
   8.5000000000000000E+03   1.6687699626645917E+03   2.3636107689251826E+03   5.6765846494249199E+03   3.4559161912681051E+00   2.2683027699638992E+06
   8.6000000000000000E+03   1.6827222519334907E+03   2.3933459075233391E+03   5.6673266974494618E+03   3.4554560207341778E+00   2.2954649286044473E+06
   8.7000000000000000E+03   1.6924182639667733E+03   2.4229672049334713E+03   5.6131406407840632E+03   3.4549981253682742E+00   2.3222051415439700E+06
   8.8000000000000000E+03   1.7046534502631666E+03   2.4524768074646950E+03   5.5903884403659567E+03   3.4545431184050379E+00   2.3485223520581005E+06
   8.9000000000000000E+03   1.7132469722096523E+03   2.4818766730199472E+03   5.5320106560631621E+03   3.4540915671135877E+00   2.3744159229410235E+06
   9.0000000000000000E+03   1.7270684834659478E+03   2.5111685700897656E+03   5.5311307421816373E+03   3.4536439954441094E+00   2.3998856117052594E+06
   9.1000000000000000E+03   1.7404304895727248E+03   2.5403540778281717E+03   5.5271650396070763E+03   3.4532008865541544E+00   2.4249315482910164E+06
   9.2000000000000000E+03   1.7539422419634927E+03   2.5694345870831717E+03   5.5262810095241548E+03   3.4527626851818387E+00   2.4495542128821453E+06
   9.3000000000000000E+03   1.7620428996711521E+03   2.5984113022762335E+03   5.4742768513733563E+03   3.4523297999096565E+00   2.4737544147291225E+06
   9.4000000000000000E+03   1.7691846759755158E+03   2.6272852440248439E+03   5.4167925837780685E+03   3.4519026052861519E+00   2.4975332753193155E+06
   9.5000000000000000E+03   1.7786537491592485E+03   2.6560572524226554E+03   5.3843028577296500E+03   3.4514814438491288E+00   2.5208922057026718E+06
   9.6000000000000000E+03   1.7904764598085576E+03   2.6847279908991854E+03   5.3753805294932790E+03   3.4510666280832689E+00   2.5438328898723489E+06
   9.7000000000000000E+03   1.8009146384409605E+03   2.7132979505610097E+03   5.3556634943956951E+03   3.4506584421590132E+00   2.5663572683101133E+06
   9.8000000000000000E+03   1.8124642597701431E+03   2.7417674549754620E+03   5.3473995853915567E+03   3.4502571436495661E+00   2.5884675217390428E+06
   9.9000000000000000E+03   1.8217058519245795E+03   2.7701366653290056E+03   5.3207615173810618E+03   3.4498629651822950E+00   2.6101660535693821E+06
   1.0000000000000000E+04   1.8330933289940522E+03   2.7984055858863553E+03   5.3140717676397198E+03   3.4494761159041940E+00   2.6314554771353579E+06
   1.0100000000000000E+04   1.8452047418512022E+03   2.8265740697277715E+03   5.3146228728592596E+03   3.4490967829473580E+00   2.6523386003042171E+06
   1.0200000000000000E+04   1.8505969659229493E+03   2.8546418246942708E+03   5.2615094369794124E+03   3.4487251327304160E+00   2.6728184126220210E+06
   1.0300000000000000E+04   1.8591287534629535E+03   2.8826084195271424E+03   5.2361960627180697E+03   3.4483613122818193E+00   2.6928980717956712E+06
   1.0400000000000000E+04   1.8658736065843982E+03   2.9104732901349366E+03   5.1987142828469923E+03   3.4480054503881767E+00   2.7125808922799402E+06
   1.0500000000000000E+04   1.8706762292434810E+03   2.9382357459783802E+03   5.1486476208147142E+03   3.4476576587316146E+00   2.7318703339324435E+06
   1.0600000000000000E+04   1.8809199357732537E+03   2.9658949765325679E+03   5.1416952272613489E+03   3.4473180329506294E+00   2.7507699892104189E+06
   1.0700000000000000E+04   1.8882455021607730E+03   2.9934500578000798E+03   5.1143189545706209E+03   3.4469866536352702E+00   2.7692835748906550E+06
   1.0800000000000000E+04   1.8952936437530600E+03   3.0208999588527213E+03   5.0865852595367724E+03   3.4466635872786249E+00   2.7874149205444735E+06
   1.0900000000000000E+04   1.9058192771312947E+03   3.0482435483652916E+03   5.0851522172148980E+03   3.4463488870860886E+00   2.8051679602215700E+06
   1.1000000000000000E+04   1.9108175350038052E+03   3.0754796011553481E+03   5.0458244680817897E+03   3.4460425938940458E+00   2.8225467228205870E+06
   1.1100000000000000E+04   1.9148805865618626E+03   3.1026068046716450E+03   5.0020968194635943E+03   3.4457447369244547E+00   2.8395553227839381E+06
   1.1200000000000000E+04   1.9243213969541307E+03   3.1296237654299548E+03   4.9965901783207319E+03   3.4454553344847851E+00   2.8561979537626388E+06
   1.1300000000000000E+04   1.9341368672120525E+03   3.1565290153849755E+03   4.9944358283107904E+03   3.4451743946460738E+00   2.8724788802771913E+06
   1.1400000000000000E+04   1.9401081699755296E+03   3.1833210182317871E+03   4.9677632625731103E+03   3.4449019159647203E+00   2.8884024294331297E+06
   1.1500000000000000E+04   1.9442446150194360E+03   3.2099981755951389E+03   4.9306767616631914E+03   3.4446378880183697E+00   2.9039729851718135E+06
   1.1600000000000000E+04   1.9504034478706080E+03   3.2365588331270851E+03   4.9081126430989680E+03   3.4443822920074161E+00   2.9191949815497366E+06
   1.1700000000000000E+04   1.9562468641893486E+03   3.2630012864869755E+03   4.8848015553775613E+03   3.4441351013018169E+00   2.9340728959911279E+06
   1.1800000000000000E+04   1.9628226238830091E+03   3.2893237871949386E+03   4.8672095625328438E+03   3.4438962819332315E+00   2.9486112436229936E+06
   1.1900000000000000E+04   1.9672687827025661E+03   3.3155245483533836E+03   4.8377526790038537E+03   3.4436657930543477E+00   2.9628145723714717E+06
   1.2000000000000000E+04   1.9767788281841570E+03   3.3416017502346863E+03   4.8399008291586233E+03   3.4434435874200777E+00   2.9766874567168774E+06
   1.2100000000000000E+04   1.9787201679022869E+03   3.3675535457177793E+03   4.7978729657863023E+03   3.4432296117922090E+00   2.9902344930711524E+06
   1.2200000000000000E+04   1.9815444357604003E+03   3.3933780655772825E+03   4.7626924888792937E+03   3.4430238073549866E+00   3.0034602951541804E+06
   1.2300000000000000E+04   1.9860521018932750E+03   3.4190734236085632E+03   4.7385603107127727E+03   3.4428261100213247E+00   3.0163694896895085E+06
   1.2400000000000000E+04   1.9939601148449487E+03   3.4446377216082069E+03   4.7346634393164904E+03   3.4426364508812068E+00   3.0289667116159764E+06
   1.2500000000000000E+04   1.9957867433457500E+03   3.4700690541742806E+03   4.6975519993340276E+03   3.4424547564532122E+00   3.0412566005828180E+06
   1.2600000000000000E+04   1.9980456157685899E+03   3.4953655133502130E+03   4.6642669684267712E+03   3.4422809490235493E+00   3.0532437970439475E+06
   1.2700000000000000E+04   2.0037588470606443E+03   3.5205251930973122E+03   4.6508702677914553E+03   3.4421149469413370E+00   3.0649329386988012E+06
   1.2800000000000000E+04   2.0078191141132838E+03   3.5455461935955773E+03   4.6294401083640214E+03   3.4419566648810762E+00   3.0763286570926090E+06
   1.2900000000000000E+04   2.0107160091483915E+03   3.5704266253740043E+03   4.6028499777106817E+03   3.4418060141051243E+00   3.0874355745464829E+06
   1.3000000000000000E+04   2.0156421272033404E+03   3.5951646132698347E+03   4.5878202511593236E+03   3.4416629027370993E+00   3.0982583011002918E+06
   1.3100000000000000E+04   2.0140979063545799E+03   3.6197583002073584E+03   4.5405290196288634E+03   3.4415272359040543E+00   3.1088014318063897E+06
   1.3200000000000000E+04   2.0167231757972445E+03   3.6442058508172972E+03   4.5157804193698139E+03   3.4413989160755141E+00   3.1190695440103388E+06
   1.3300000000000000E+04   2.0217554885828306E+03   3.6685054548689382E+03   4.5039144922555433E+03   3.4412778431509561E+00   3.1290671949602058E+06
